  4.9994529e-001
 -8.5147019e-004
 -5.0073091e-001
  6.1966608e-004
  5.0009363e-001
 -1.7442427e-003
 -5.0076545e-001
  1.2823488e-003
  4.9796422e-001
 -7.5940319e-003
 -5.0548865e-001
  1.9623591e-003
  5.1082711e-001
  2.1537844e-002
 -4.7094105e-001
  2.5963096e-002
  5.0904257e-001
 -5.2663478e-003
 -5.0292844e-001
  1.9118330e-003
  4.9684760e-001
 -6.2891406e-003
 -4.9776362e-001
  6.8603742e-003
  4.9771547e-001
 -5.6880064e-003
 -4.9396679e-001
  6.5119109e-003
  4.8313293e-001
 -2.9509981e-002
 -5.0876388e-001
  9.0890438e-003
  4.9301757e-001
 -2.3992478e-002
 -5.1569353e-001
 -3.6520746e-002
  3.6731615e-001
 -2.1066329e-001
 -5.9732021e-001
  2.5334876e-001
  1.1732715e+000
  9.0942318e-001
  3.1720305e-001
  4.6105211e-001
  5.7167689e-001
 -1.2914226e-001
 -6.1205446e-001
 -2.8511846e-002
  4.9495778e-001
 -1.5822166e-002
 -4.9050904e-001
  5.1427160e-002
  5.5283593e-001
  2.8388337e-002
 -4.7474085e-001
  3.2694167e-002
  5.1939358e-001
  9.3597787e-003
 -4.6539205e-001
  6.4402095e-002
  5.6005580e-001
  4.8655090e-002
 -4.3319529e-001
  8.7790132e-002
  5.8254470e-001
  8.7300664e-002
 -3.6615293e-001
  1.8251447e-001
  6.9261823e-001
  2.0320561e-001
 -2.4484200e-001
  3.0343379e-001
  8.0691248e-001
  3.0151835e-001
 -1.7779413e-001
  3.3706416e-001
  8.2038475e-001
  3.1500538e-001
 -1.6323641e-001
  3.1794600e-001
  7.3124649e-001
  1.6044363e-001
 -3.4184397e-001
  1.4931645e-001
  5.7619040e-001
  1.3936498e-002
 -4.7124713e-001
  4.9282445e-002
  5.0231861e-001
 -4.6509361e-002
 -5.1907588e-001
  2.5136926e-002
  5.0304011e-001
 -3.8044896e-002
 -5.1971401e-001
  1.8837516e-002
  5.0800597e-001
 -1.6105960e-002
 -4.9520330e-001
  3.0860959e-002
  5.1235938e-001
 -2.8417769e-003
 -4.6972691e-001
  5.3144861e-002
  5.1989849e-001
 -3.8400910e-003
 -4.7120893e-001
  4.4273114e-002
  4.9518809e-001
 -3.2006181e-002
 -4.7802767e-001
  6.3131683e-002
  5.1225004e-001
 -4.6219738e-002
 -5.2395593e-001
  1.0967977e-002
  4.7957928e-001
 -5.1794600e-002
 -5.1271395e-001
  2.3149455e-002
  4.8453485e-001
 -4.9239703e-002
 -5.0279651e-001
  4.1476288e-002
  5.0193151e-001
 -4.0473787e-002
 -4.9977347e-001
  4.7001096e-002
  5.1104287e-001
 -3.8221602e-002
 -5.1649990e-001
  1.2092724e-002
  4.7601890e-001
 -5.3598261e-002
 -5.1132695e-001
  2.1627804e-002
  4.8008684e-001
 -4.6051819e-002
 -4.9075463e-001
  4.3658438e-002
  4.7933844e-001
 -7.3979370e-002
 -5.1448372e-001
  6.0255306e-002
  5.4610690e-001
  1.9736348e-002
 -4.4291106e-001
  7.9681428e-002
  5.2429913e-001
 -1.1295341e-002
 -4.5574930e-001
  8.2938816e-002
  5.2829549e-001
 -1.0715127e-002
 -4.6269814e-001
  5.0880159e-002
  4.5764847e-001
 -9.9826659e-002
 -5.2615987e-001
  3.5432761e-002
  4.7109898e-001
 -8.7819346e-002
 -5.2603708e-001
  2.9065038e-002
  4.6518599e-001
 -8.8291725e-002
 -5.3238826e-001
 -2.9638159e-002
  3.2018163e-001
 -2.1616934e-001
 -3.5979994e-001
  7.0020606e-001
  1.5009102e+000
  8.5835501e-001
 -3.1429974e-002
  9.0553464e-002
  3.7343363e-001
 -1.2807116e-001
 -4.9999747e-001
  6.3382036e-002
  4.9883020e-001
 -4.6539533e-002
 -4.8818926e-001
  4.9323881e-002
  4.8819929e-001
 -4.4423103e-002
 -4.7348246e-001
  6.3234916e-002
  4.8578591e-001
 -5.5871832e-002
 -4.6743557e-001
  9.9649576e-002
  5.4179472e-001
  7.1832535e-003
 -4.0015166e-001
  1.6514958e-001
  5.9366140e-001
  5.0889560e-002
 -3.3433312e-001
  2.8128872e-001
  7.4920195e-001
  2.0218022e-001
 -2.1776217e-001
  3.5722325e-001
  8.0006892e-001
  2.5240194e-001
 -1.5985357e-001
  4.1527198e-001
  8.3386632e-001
  2.3134789e-001
 -2.4422264e-001
  2.8819964e-001
  6.9537679e-001
  9.8605542e-002
 -3.7630928e-001
  1.4391713e-001
  5.3753233e-001
 -5.8038428e-002
 -5.0910588e-001
  5.6571591e-002
  5.0672096e-001
 -4.4332489e-002
 -4.8842734e-001
  4.6583613e-002
  4.6413510e-001
 -8.4671804e-002
 -4.9456796e-001
  7.0779218e-002
  4.9129078e-001
 -7.0520211e-002
 -4.9055875e-001
  6.8341510e-002
  4.8272583e-001
 -7.7802532e-002
 -4.8403243e-001
  8.9082856e-002
  5.0178745e-001
 -7.4670194e-002
 -4.9566265e-001
  7.1267187e-002
  4.8252742e-001
 -9.1796211e-002
 -5.0454357e-001
  7.3436869e-002
  4.8957383e-001
 -8.8170177e-002
 -5.0370405e-001
  7.9009223e-002
  4.9970126e-001
 -8.7768941e-002
 -5.2943057e-001
  2.9604632e-002
  4.5711733e-001
 -8.6764544e-002
 -4.7910314e-001
  9.2486600e-002
  4.8447269e-001
 -1.1106610e-001
 -5.2879609e-001
  5.5997918e-002
  4.7878519e-001
 -9.4486304e-002
 -5.0770783e-001
  7.1976800e-002
  4.9161450e-001
 -7.9883621e-002
 -4.9149286e-001
  8.6050306e-002
  5.0313835e-001
 -6.8964513e-002
 -4.8643952e-001
  7.4695067e-002
  4.7840493e-001
 -8.4216529e-002
 -4.7404909e-001
  1.0248101e-001
  4.9114592e-001
 -9.7410846e-002
 -4.9305307e-001
  1.0083896e-001
  5.0673491e-001
 -8.1756163e-002
 -4.8130707e-001
  1.2119241e-001
  5.4413795e-001
 -3.0256789e-002
 -4.3469750e-001
  1.4861288e-001
  5.5644360e-001
 -2.6728116e-002
 -4.3631545e-001
  1.4069565e-001
  5.4360704e-001
 -3.5447429e-002
 -4.3852113e-001
  1.3225458e-001
  5.1329828e-001
 -8.7714905e-002
 -4.9576982e-001
  8.9745143e-002
  4.9507418e-001
 -8.6208596e-002
 -4.8955662e-001
  8.5236728e-002
  4.7118745e-001
 -1.3924401e-001
 -5.8994756e-001
 -5.4193453e-002
  4.0225527e-001
  8.5559294e-002
  1.1544421e-001
  1.0475767e+000
  1.4677607e+000
  5.6835251e-001
 -2.4617366e-001
  7.4966100e-002
  4.2973127e-001
 -8.8093017e-002
 -4.4250794e-001
  1.2286350e-001
  4.8710143e-001
 -9.3436362e-002
 -4.5717594e-001
  1.4675660e-001
  5.3498314e-001
 -5.8803593e-002
 -4.4766179e-001
  1.4508039e-001
  5.3977179e-001
 -3.7839062e-002
 -4.1358985e-001
  1.7546034e-001
  5.5159503e-001
 -3.6263736e-002
 -3.9226362e-001
  2.3905093e-001
  6.4785094e-001
  6.3688746e-002
 -3.0846585e-001
  3.1473732e-001
  7.3896238e-001
  1.7695423e-001
 -1.8485144e-001
  4.2448766e-001
  8.1442713e-001
  2.1697640e-001
 -1.7763606e-001
  4.0574445e-001
  7.8517282e-001
  1.8564089e-001
 -2.2443390e-001
  3.1653168e-001
  6.4748653e-001
  3.2569464e-002
 -3.5244837e-001
  2.1518792e-001
  5.4015636e-001
 -9.7083958e-002
 -4.7789614e-001
  1.3307007e-001
  5.0930860e-001
 -1.0423558e-001
 -4.9194823e-001
  1.0647512e-001
  4.8810644e-001
 -9.9728526e-002
 -4.5999500e-001
  1.4440851e-001
  5.0577464e-001
 -1.0911183e-001
 -4.7998739e-001
  1.3422511e-001
  5.0960743e-001
 -1.0207392e-001
 -4.7535435e-001
  1.4593290e-001
  5.3910895e-001
 -6.3942265e-002
 -4.5790549e-001
  1.2324232e-001
  4.9251143e-001
 -9.7825350e-002
 -4.6136757e-001
  1.3501804e-001
  4.9722927e-001
 -1.0246790e-001
 -4.6584545e-001
  1.3069085e-001
  4.8669977e-001
 -1.1313837e-001
 -4.6125607e-001
  1.4987709e-001
  4.9742076e-001
 -1.2952980e-001
 -4.9530015e-001
  1.2679398e-001
  5.0424529e-001
 -1.0090119e-001
 -4.7275369e-001
  1.1747919e-001
  4.6048995e-001
 -1.5287282e-001
 -4.9539132e-001
  1.4171931e-001
  5.1077537e-001
 -1.2234050e-001
 -5.1813489e-001
  7.5501226e-002
  4.4869770e-001
 -1.3459257e-001
 -4.7484631e-001
  1.4096756e-001
  5.0605229e-001
 -9.2492807e-002
 -4.4732270e-001
  1.5657964e-001
  5.1209837e-001
 -8.2910864e-002
 -4.1835194e-001
  1.9603799e-001
  5.4425796e-001
 -6.1387690e-002
 -4.0003586e-001
  2.0879435e-001
  5.3170828e-001
 -1.1192834e-001
 -4.7675659e-001
  1.2827049e-001
  4.6173611e-001
 -1.6409362e-001
 -5.0337866e-001
  1.3066058e-001
  4.8426401e-001
 -1.3651478e-001
 -4.8461583e-001
  1.1579937e-001
  3.9757647e-001
 -2.9138591e-001
 -5.7799059e-001
  3.3205566e-001
  1.1054496e+000
  7.7946158e-001
  3.8061252e-001
  6.4942997e-001
  6.0279508e-001
 -2.2986662e-001
 -5.8840104e-001
  9.8125710e-002
  4.8975344e-001
 -1.1790784e-001
 -4.6296051e-001
  1.5420405e-001
  4.9846217e-001
 -1.0996854e-001
 -4.3608478e-001
  1.8764838e-001
  5.1849236e-001
 -1.0520717e-001
 -4.2932490e-001
  2.1114304e-001
  5.5545093e-001
 -6.7677866e-002
 -3.9465987e-001
  2.5237239e-001
  6.1075293e-001
 -4.4724480e-003
 -3.3558389e-001
  3.1121209e-001
  6.9056682e-001
  1.1446427e-001
 -1.8854851e-001
  4.4160450e-001
  7.7251199e-001
  1.5526416e-001
 -1.5769728e-001
  4.9036300e-001
  8.3195225e-001
  1.9352141e-001
 -1.6882376e-001
  4.1972051e-001
  7.1629392e-001
  5.9584829e-002
 -3.0427745e-001
  2.8160587e-001
  5.7052336e-001
 -8.6665799e-002
 -4.3279150e-001
  1.8753882e-001
  5.1802794e-001
 -1.0094209e-001
 -4.2499213e-001
  1.9005600e-001
  4.9365039e-001
 -1.4909516e-001
 -4.7308613e-001
  1.6198635e-001
  4.8499560e-001
 -1.5196511e-001
 -4.7851155e-001
  1.6038409e-001
  5.0193544e-001
 -1.1134999e-001
 -4.3020757e-001
  1.9036010e-001
  5.0386980e-001
 -1.2020879e-001
 -4.2655939e-001
  2.0664484e-001
  5.0989016e-001
 -1.4150989e-001
 -4.6636800e-001
  1.7576382e-001
  5.1026356e-001
 -1.1168165e-001
 -4.3229711e-001
  1.8655971e-001
  4.9204313e-001
 -1.3852920e-001
 -4.4418554e-001
  1.9245695e-001
  5.0285414e-001
 -1.3155130e-001
 -4.4171347e-001
  1.8645900e-001
  4.8048031e-001
 -1.6590060e-001
 -4.6677694e-001
  1.8960391e-001
  5.1007263e-001
 -1.3111199e-001
 -4.3889928e-001
  2.2015365e-001
  5.5200336e-001
 -7.5867254e-002
 -3.7987996e-001
  2.6557057e-001
  5.7341927e-001
 -8.6982316e-002
 -4.2212515e-001
  2.1444698e-001
  5.4419660e-001
 -8.2318756e-002
 -4.0728432e-001
  2.0237803e-001
  4.9389718e-001
 -1.4713153e-001
 -4.5512842e-001
  1.8305842e-001
  4.9106003e-001
 -1.5440511e-001
 -4.7692875e-001
  1.5643555e-001
  4.6858932e-001
 -2.0185745e-001
 -5.9635228e-001
  1.7261204e-002
  5.4661417e-001
  3.7335129e-001
  4.6976104e-001
  1.1162591e+000
  1.0462575e+000
 -1.4282099e-002
 -5.1088579e-001
  1.3672438e-001
  4.7336601e-001
 -1.7568361e-001
 -4.7802409e-001
  1.9698691e-001
  5.2731279e-001
 -1.1494754e-001
 -4.2380111e-001
  2.2389958e-001
  5.3582851e-001
 -1.0279675e-001
 -4.0835243e-001
  2.2501731e-001
  5.2125321e-001
 -1.1066229e-001
 -3.9220346e-001
  2.5659556e-001
  5.4989763e-001
 -8.7114055e-002
 -3.5756543e-001
  3.1860054e-001
  6.4148646e-001
  2.8143522e-002
 -2.3019021e-001
  4.4430905e-001
  7.5950521e-001
  1.2919518e-001
 -1.5578022e-001
  4.8980226e-001
  7.8125687e-001
  1.4499130e-001
 -1.3924796e-001
  4.8723924e-001
  7.3544512e-001
  5.2383834e-002
 -2.6113949e-001
  3.5428917e-001
  5.9952079e-001
 -8.1907298e-002
 -3.8555610e-001
  2.4781544e-001
  5.1200767e-001
 -1.5702866e-001
 -4.5651506e-001
  1.8179656e-001
  4.6686193e-001
 -1.6248200e-001
 -4.2580927e-001
  2.1642549e-001
  4.7426933e-001
 -1.7828658e-001
 -4.3276949e-001
  2.3689888e-001
  5.0410479e-001
 -1.7089922e-001
 -4.5564690e-001
  2.0721237e-001
  4.9691327e-001
 -1.4860981e-001
 -4.2190231e-001
  2.3006858e-001
  5.0115136e-001
 -1.5669606e-001
 -4.3570346e-001
  2.1132515e-001
  4.8039157e-001
 -1.6875520e-001
 -4.3183748e-001
  2.2297472e-001
  4.8393973e-001
 -1.7879584e-001
 -4.4556471e-001
  2.1821503e-001
  4.9058032e-001
 -1.6782171e-001
 -4.3725493e-001
  2.2392214e-001
  4.9813742e-001
 -1.5813354e-001
 -4.3311107e-001
  2.1350285e-001
  4.7327697e-001
 -1.8927585e-001
 -4.6391618e-001
  1.8746152e-001
  4.6292027e-001
 -1.6967834e-001
 -4.1757670e-001
  2.3274858e-001
  4.8040341e-001
 -1.7537505e-001
 -4.1436170e-001
  2.6305464e-001
  5.2619011e-001
 -1.3729262e-001
 -4.0334263e-001
  2.5495190e-001
  5.2166266e-001
 -1.3008475e-001
 -3.8969365e-001
  2.6497336e-001
  5.3390767e-001
 -9.8107719e-002
 -3.4651601e-001
  2.7693783e-001
  4.8185245e-001
 -1.9445072e-001
 -4.3320840e-001
  2.3108613e-001
  4.6550542e-001
 -2.0358812e-001
 -4.4292505e-001
  2.1958232e-001
  4.5017005e-001
 -2.1729788e-001
 -4.5572870e-001
  1.6832640e-001
  3.1827843e-001
 -3.4427903e-001
 -2.9962444e-001
  8.8690531e-001
  1.5266376e+000
  8.0291294e-001
  1.0778161e-001
  3.0899004e-001
  3.6400229e-001
 -2.5475982e-001
 -4.2175262e-001
  2.4929820e-001
  4.7283225e-001
 -1.8630850e-001
 -4.1498410e-001
  2.4465953e-001
  4.7723167e-001
 -1.7739167e-001
 -3.9803951e-001
  2.7413176e-001
  5.0680867e-001
 -1.6385488e-001
 -3.9805283e-001
  2.7774510e-001
  5.2671959e-001
 -1.2897728e-001
 -3.5781087e-001
  3.1626045e-001
  5.6610036e-001
 -7.7577537e-002
 -2.8571693e-001
  4.1305692e-001
  6.8590001e-001
  5.5553100e-002
 -1.5631072e-001
  5.0847887e-001
  7.3548804e-001
  8.7590764e-002
 -1.0916194e-001
  5.7396347e-001
  7.8360862e-001
  7.7512353e-002
 -1.8050127e-001
  4.6981659e-001
  6.7282944e-001
 -3.4931885e-002
 -3.0335534e-001
  3.3095132e-001
  5.2463175e-001
 -1.7595971e-001
 -4.2022143e-001
  2.4761061e-001
  4.7513342e-001
 -1.9731647e-001
 -4.2328382e-001
  2.4903858e-001
  4.6655768e-001
 -2.2128285e-001
 -4.4982618e-001
  2.4577424e-001
  5.0250769e-001
 -1.6241085e-001
 -4.0935185e-001
  2.4063777e-001
  4.6889654e-001
 -1.8267176e-001
 -3.9704222e-001
  2.6646073e-001
  4.8106623e-001
 -1.8971386e-001
 -4.1352523e-001
  2.4444166e-001
  4.5303604e-001
 -2.1347812e-001
 -4.1805342e-001
  2.5857013e-001
  4.6717067e-001
 -2.1711992e-001
 -4.4039079e-001
  2.3230780e-001
  4.5514820e-001
 -2.0598930e-001
 -4.1571385e-001
  2.4637081e-001
  4.4281860e-001
 -2.3487120e-001
 -4.3764134e-001
  2.4168548e-001
  4.4494604e-001
 -2.3695864e-001
 -4.3864457e-001
  2.5520500e-001
  4.7597812e-001
 -2.0284707e-001
 -4.2182395e-001
  2.4770439e-001
  4.5795637e-001
 -2.0894361e-001
 -4.0510330e-001
  2.7692439e-001
  4.7858399e-001
 -2.1172203e-001
 -4.3230688e-001
  2.3804015e-001
  4.4936614e-001
 -2.1455531e-001
 -4.1440548e-001
  2.4952436e-001
  4.3990141e-001
 -2.2716318e-001
 -3.9590128e-001
  3.1386702e-001
  5.1825091e-001
 -1.7351989e-001
 -3.7262421e-001
  3.2322573e-001
  5.2969897e-001
 -1.6591005e-001
 -3.8322892e-001
  2.9846601e-001
  5.0769319e-001
 -1.7972970e-001
 -4.0427749e-001
  2.5338166e-001
  4.4334067e-001
 -2.3912965e-001
 -4.3713894e-001
  2.5217927e-001
  4.6534661e-001
 -2.0945079e-001
 -4.1687461e-001
  2.4745919e-001
  4.1603718e-001
 -3.2392867e-001
 -5.6428810e-001
  2.3404643e-001
  8.0810944e-001
  6.1240625e-001
  6.5281258e-001
  1.1100311e+000
  8.0755146e-001
 -2.5230712e-001
 -5.1852974e-001
  2.5763338e-001
  5.0228674e-001
 -2.0938965e-001
 -4.2808986e-001
  2.7089893e-001
  4.8911252e-001
 -1.8114042e-001
 -3.6573097e-001
  3.1941597e-001
  5.0052582e-001
 -1.9190320e-001
 -3.7224278e-001
  3.3196608e-001
  5.2922175e-001
 -1.6296812e-001
 -3.5679408e-001
  3.3880795e-001
  5.5057733e-001
 -1.0884110e-001
 -2.7474778e-001
  4.3374105e-001
  6.5282240e-001
  6.2152363e-003
 -1.5244817e-001
  5.4203211e-001
  7.4202884e-001
  8.4723562e-002
 -8.3447224e-002
  5.8961783e-001
  7.5220686e-001
  6.7627595e-002
 -1.0213440e-001
  5.7332432e-001
  7.1979764e-001
  2.4882194e-003
 -2.0137853e-001
  4.4708913e-001
  5.7449774e-001
 -1.5197266e-001
 -3.5176446e-001
  3.1144082e-001
  4.5911468e-001
 -2.3966073e-001
 -4.0206400e-001
  2.9816312e-001
  4.6627032e-001
 -2.3128530e-001
 -3.9424444e-001
  3.2274836e-001
  5.2021420e-001
 -1.6422668e-001
 -3.5159248e-001
  3.1685457e-001
  4.7752577e-001
 -2.1222505e-001
 -3.8705107e-001
  2.9041171e-001
  4.5740106e-001
 -2.1628152e-001
 -3.6843147e-001
  3.2022730e-001
  4.7781367e-001
 -2.1693745e-001
 -3.9034060e-001
  2.8281615e-001
  4.4004621e-001
 -2.3106695e-001
 -3.6892612e-001
  3.2011539e-001
  4.5574515e-001
 -2.5366192e-001
 -4.0940263e-001
  2.9581855e-001
  4.6169460e-001
 -2.3239955e-001
 -3.9652093e-001
  2.9074250e-001
  4.4959211e-001
 -2.3229671e-001
 -3.7642933e-001
  3.1952085e-001
  4.6781992e-001
 -2.3582960e-001
 -3.9958824e-001
  2.9043776e-001
  4.5827951e-001
 -2.0555062e-001
 -3.3217942e-001
  3.6836988e-001
  5.0253556e-001
 -2.1598006e-001
 -3.7545833e-001
  3.3000330e-001
  4.9887630e-001
 -1.8567728e-001
 -3.3734455e-001
  3.5242740e-001
  4.9642533e-001
 -2.1489893e-001
 -3.9629950e-001
  2.6745476e-001
  4.0852063e-001
 -2.7063579e-001
 -3.9989720e-001
  3.0468301e-001
  4.5655695e-001
 -2.3654423e-001
 -3.8793774e-001
  2.9302306e-001
  4.0479691e-001
 -3.5658208e-001
 -5.4741206e-001
  2.6820610e-001
  7.9217567e-001
  5.7349642e-001
  6.4280288e-001
  1.0867677e+000
  7.1944014e-001
 -3.4313078e-001
 -5.3258834e-001
  2.7576406e-001
  4.7329834e-001
 -2.4894532e-001
 -4.0367392e-001
  3.2049732e-001
  4.7939045e-001
 -2.2872215e-001
 -3.7389161e-001
  3.4434094e-001
  5.0546965e-001
 -1.9397875e-001
 -3.4628766e-001
  3.5271623e-001
  5.1013916e-001
 -1.7289896e-001
 -3.1457803e-001
  3.7653588e-001
  5.2974924e-001
 -1.3267611e-001
 -2.4158879e-001
  4.7304617e-001
  6.4362747e-001
  9.7162953e-003
 -7.5050669e-002
  6.1985327e-001
  7.3206509e-001
  4.3821059e-002
 -5.4507575e-002
  6.6128464e-001
  7.8180606e-001
  7.1479089e-002
 -6.2366621e-002
  6.1811708e-001
  7.0576036e-001
 -3.8836518e-002
 -2.0580778e-001
  4.5268588e-001
  5.3656611e-001
 -1.9468106e-001
 -3.3690073e-001
  3.5277246e-001
  4.7168879e-001
 -2.2725966e-001
 -3.5370796e-001
  3.2744115e-001
  4.2511277e-001
 -2.8351786e-001
 -3.9278663e-001
  3.2489530e-001
  4.5432623e-001
 -2.4918478e-001
 -3.8179719e-001
  3.0730484e-001
  4.3390699e-001
 -2.3986751e-001
 -3.3674589e-001
  3.6166286e-001
  4.6612011e-001
 -2.3928735e-001
 -3.5668800e-001
  3.3746011e-001
  4.5211452e-001
 -2.3573663e-001
 -3.4592544e-001
  3.2902428e-001
  4.0852375e-001
 -2.9347434e-001
 -3.7522124e-001
  3.4832864e-001
  4.5495637e-001
 -2.5798320e-001
 -3.6848537e-001
  3.3706308e-001
  4.4472177e-001
 -2.5956871e-001
 -3.6667694e-001
  3.3409284e-001
  4.3230174e-001
 -2.8199170e-001
 -3.9586773e-001
  3.0864387e-001
  4.3223016e-001
 -2.4243920e-001
 -3.2326304e-001
  3.9194322e-001
  4.9161233e-001
 -2.2664501e-001
 -3.4560205e-001
  3.5333368e-001
  4.7506226e-001
 -1.9591941e-001
 -2.8313290e-001
  3.9894002e-001
  4.5778035e-001
 -2.8115788e-001
 -3.9645538e-001
  3.1190915e-001
  4.2742677e-001
 -2.6491099e-001
 -3.6903237e-001
  3.2061132e-001
  4.1277595e-001
 -2.8945768e-001
 -3.9002017e-001
  3.0480043e-001
  3.7972651e-001
 -3.8595789e-001
 -5.5766695e-001
  2.0886085e-001
  6.5541869e-001
  4.7967900e-001
  7.0443764e-001
  1.2351600e+000
  8.1534247e-001
 -3.1606803e-001
 -5.1137197e-001
  2.8926209e-001
  4.4741185e-001
 -2.7702893e-001
 -3.9298197e-001
  3.2560941e-001
  4.3857093e-001
 -2.5826829e-001
 -3.4433527e-001
  3.6406650e-001
  4.4577569e-001
 -2.7410008e-001
 -3.6811794e-001
  3.4572734e-001
  4.4938755e-001
 -2.3829701e-001
 -3.1069852e-001
  3.9949055e-001
  4.8232240e-001
 -2.2120449e-001
 -2.8559082e-001
  4.6413097e-001
  6.0551461e-001
 -5.0270830e-002
 -1.1511057e-001
  5.7699172e-001
  6.4993499e-001
 -4.0462666e-002
 -9.5464637e-002
  6.2981442e-001
  7.2042194e-001
  1.9670499e-002
 -7.0107660e-002
  6.0219255e-001
  6.4134417e-001
 -9.1810061e-002
 -1.9798101e-001
  4.5921230e-001
  4.8344712e-001
 -2.4971163e-001
 -3.3311357e-001
  3.5799593e-001
  4.1050433e-001
 -3.0298038e-001
 -3.6876042e-001
  3.3948941e-001
  4.0378562e-001
 -3.0689831e-001
 -3.7670725e-001
  3.2684632e-001
  3.9037279e-001
 -3.1786689e-001
 -3.8566843e-001
  3.2065598e-001
  3.9507853e-001
 -2.9514261e-001
 -3.5408974e-001
  3.3961654e-001
  3.9320131e-001
 -2.9953463e-001
 -3.3901644e-001
  3.6768294e-001
  4.0406112e-001
 -3.2332649e-001
 -3.8083589e-001
  3.4060710e-001
  4.0682664e-001
 -3.0454463e-001
 -3.7037782e-001
  3.3258453e-001
  3.8982997e-001
 -3.1601199e-001
 -3.7259698e-001
  3.3330228e-001
  3.8816543e-001
 -3.2096531e-001
 -3.8062673e-001
  3.2368200e-001
  3.8259551e-001
 -3.1816132e-001
 -3.7739698e-001
  3.1288064e-001
  3.5816434e-001
 -3.3644123e-001
 -3.7501139e-001
  3.2593582e-001
  3.6255058e-001
 -3.4316377e-001
 -3.7777119e-001
  3.3595364e-001
  3.7564824e-001
 -3.4051733e-001
 -3.8645038e-001
  3.2506520e-001
  3.6946167e-001
 -3.4012761e-001
 -3.7745564e-001
  3.4704007e-001
  4.1008272e-001
 -2.8910089e-001
 -3.3726966e-001
  3.6713350e-001
  4.1625049e-001
 -2.7558237e-001
 -3.0247373e-001
  4.0592371e-001
  4.3523231e-001
 -2.8399823e-001
 -3.2536098e-001
  3.8877239e-001
  4.2765507e-001
 -3.0054618e-001
 -3.7473564e-001
  3.0626600e-001
  3.4567734e-001
 -3.3989427e-001
 -3.6049896e-001
  3.4165773e-001
  3.5709316e-001
 -3.6802271e-001
 -4.0537170e-001
  3.0603648e-001
  3.1640798e-001
 -4.5769241e-001
 -5.2115154e-001
  3.5089833e-001
  8.0385585e-001
  5.7399518e-001
  7.2789033e-001
  1.1690254e+000
  6.9732291e-001
 -3.7588658e-001
 -4.7619435e-001
  3.1544662e-001
  3.8815389e-001
 -3.4800056e-001
 -3.9425323e-001
  3.4178247e-001
  3.9974088e-001
 -3.1119149e-001
 -3.5645717e-001
  3.4662406e-001
  3.8229005e-001
 -3.1402231e-001
 -3.2822957e-001
  3.9227994e-001
  4.2409217e-001
 -2.9242447e-001
 -3.3615203e-001
  3.6432004e-001
  4.1331493e-001
 -2.4510923e-001
 -2.2803955e-001
  4.9391712e-001
  5.2356130e-001
 -1.5486882e-001
 -1.3227920e-001
  6.0252382e-001
  6.3388265e-001
 -5.8900522e-002
 -5.5703393e-002
  6.6578810e-001
  6.7676664e-001
 -4.7681086e-002
 -7.8270423e-002
  6.1476591e-001
  6.0784208e-001
 -1.2760193e-001
 -1.7254175e-001
  4.9740047e-001
  4.6693167e-001
 -2.7597334e-001
 -3.0271572e-001
  4.0295541e-001
  4.0420040e-001
 -3.2732394e-001
 -3.5558335e-001
  3.6066014e-001
  3.9569213e-001
 -3.0303666e-001
 -3.3704606e-001
  3.3527382e-001
  3.3506508e-001
 -3.5258906e-001
 -3.4621318e-001
  3.4907802e-001
  3.3862828e-001
 -3.6438903e-001
 -3.5254811e-001
  3.6142174e-001
  3.6330227e-001
 -3.3711870e-001
 -3.2416508e-001
  3.8956348e-001
  3.8204726e-001
 -3.3784836e-001
 -3.4626324e-001
  3.5350166e-001
  3.4403812e-001
 -3.6800639e-001
 -3.6601913e-001
  3.4128170e-001
  3.3765760e-001
 -3.6401227e-001
 -3.4488282e-001
  3.7913785e-001
  3.8195542e-001
 -3.2986472e-001
 -3.3886370e-001
  3.4832654e-001
  3.2671367e-001
 -3.7957464e-001
 -3.5743650e-001
  3.6196618e-001
  3.5071675e-001
 -3.6993165e-001
 -3.7164505e-001
  3.3291238e-001
  3.2597679e-001
 -3.7375176e-001
 -3.5121103e-001
  3.6460408e-001
  3.4779282e-001
 -3.7767058e-001
 -3.8038783e-001
  3.3071209e-001
  3.3664394e-001
 -3.5511470e-001
 -3.3963537e-001
  3.6058393e-001
  3.5033566e-001
 -3.3102797e-001
 -2.8803032e-001
  4.3374359e-001
  4.2196604e-001
 -2.8718700e-001
 -2.8169079e-001
  4.0543765e-001
  3.7750285e-001
 -3.2082320e-001
 -2.9835755e-001
  3.8412325e-001
  3.2985742e-001
 -3.8805780e-001
 -3.6159860e-001
  3.3256701e-001
  2.8200526e-001
 -4.2755964e-001
 -3.7264866e-001
  3.5585369e-001
  3.1955412e-001
 -3.9875470e-001
 -3.7178624e-001
  2.8907120e-001
  1.5277796e-001
 -5.7201346e-001
 -2.7062782e-001
  9.4857844e-001
  1.3105643e+000
  5.5168313e-001
  1.5716148e-001
  4.3916544e-001
  2.4323070e-001
 -4.2951118e-001
 -3.5157037e-001
  3.5493908e-001
  3.3352538e-001
 -3.3640156e-001
 -2.9483753e-001
  3.7792484e-001
  3.2235170e-001
 -3.6398681e-001
 -3.0632466e-001
  3.9316737e-001
  3.5071071e-001
 -3.2718108e-001
 -2.5230850e-001
  4.5537891e-001
  3.8951593e-001
 -3.2620391e-001
 -2.6109564e-001
  4.7676852e-001
  4.5196183e-001
 -2.3920223e-001
 -1.6485681e-001
  5.8507551e-001
  5.7316859e-001
 -1.2176897e-001
 -6.7508735e-002
  6.5398717e-001
  6.2155325e-001
 -7.8913664e-002
 -3.1147443e-002
  6.7842018e-001
  6.3123115e-001
 -8.9330040e-002
 -7.0132232e-002
  6.0292622e-001
  5.2197173e-001
 -2.1790228e-001
 -2.0275581e-001
  4.7375929e-001
  3.9896160e-001
 -3.3189253e-001
 -3.0685479e-001
  3.7817746e-001
  3.1519690e-001
 -3.9320067e-001
 -3.3673876e-001
  3.7647777e-001
  3.2702935e-001
 -3.8378875e-001
 -3.3875297e-001
  3.6551446e-001
  3.2088233e-001
 -3.7158945e-001
 -3.1090982e-001
  3.8886203e-001
  3.2231657e-001
 -3.8678388e-001
 -3.1757917e-001
  4.1338314e-001
  3.7784868e-001
 -3.2725067e-001
 -2.9267033e-001
  3.8299223e-001
  3.1087595e-001
 -3.8545723e-001
 -3.0811749e-001
  4.0830766e-001
  3.5057739e-001
 -3.5297853e-001
 -2.8855709e-001
  4.1689262e-001
  3.5037051e-001
 -3.5796322e-001
 -2.9022154e-001
  4.2660999e-001
  3.7173806e-001
 -3.3728699e-001
 -2.8829294e-001
  4.0370783e-001
  3.4102201e-001
 -3.4904259e-001
 -2.7306097e-001
  4.2693258e-001
  3.5126472e-001
 -3.4957146e-001
 -2.6475145e-001
  4.5429603e-001
  3.8244314e-001
 -3.4322599e-001
 -2.9863217e-001
  3.9469656e-001
  3.3512261e-001
 -3.4578277e-001
 -2.5757284e-001
  4.4772487e-001
  3.6792652e-001
 -3.4279757e-001
 -2.7570402e-001
  4.1915956e-001
  3.3580394e-001
 -3.7208547e-001
 -2.9628903e-001
  4.1028315e-001
  3.4074799e-001
 -3.5246347e-001
 -2.6846352e-001
  4.3024173e-001
  3.3813267e-001
 -3.7645818e-001
 -2.9707418e-001
  4.1666855e-001
  3.4976742e-001
 -3.4491353e-001
 -2.6441038e-001
  4.3316794e-001
  3.5454334e-001
 -3.3236387e-001
 -2.2766213e-001
  4.8999617e-001
  3.9999578e-001
 -3.1671847e-001
 -2.2930756e-001
  4.9444204e-001
  4.2698522e-001
 -2.7966084e-001
 -2.1100310e-001
  4.7865183e-001
  3.8119590e-001
 -3.4342550e-001
 -2.8314146e-001
  4.1100779e-001
  3.3785364e-001
 -3.5054545e-001
 -2.6530884e-001
  4.2816259e-001
  3.3660210e-001
 -3.7138608e-001
 -2.9408154e-001
  4.0727898e-001
  3.1862216e-001
 -4.3515429e-001
 -4.4456208e-001
  2.7370314e-001
  5.0280859e-001
  3.4451565e-001
  8.1539074e-001
  1.4087357e+000
  8.2664398e-001
 -3.2802649e-001
 -3.7848040e-001
  3.9750453e-001
  3.6826268e-001
 -3.4975207e-001
 -2.7501821e-001
  4.4651569e-001
  3.6948075e-001
 -3.4367872e-001
 -2.5978590e-001
  4.5370654e-001
  3.7217455e-001
 -3.3500302e-001
 -2.5185550e-001
  4.5180168e-001
  3.7176629e-001
 -3.1558315e-001
 -2.1200766e-001
  4.9921488e-001
  4.2090518e-001
 -2.6411790e-001
 -1.6328600e-001
  5.4555673e-001
  4.8873096e-001
 -1.4145225e-001
  6.0527148e-003
  7.0258051e-001
  5.8707610e-001
 -9.8607804e-002
  3.2668516e-002
  7.4101365e-001
  6.2401563e-001
 -8.1201906e-002
  3.0249946e-002
  7.2250544e-001
  5.8610094e-001
 -1.4823645e-001
 -6.8894510e-002
  6.0231002e-001
  4.6236118e-001
 -2.6594230e-001
 -1.8523558e-001
  4.7954676e-001
  3.3969250e-001
 -3.6703519e-001
 -2.4828396e-001
  4.4927029e-001
  3.2180543e-001
 -3.8603289e-001
 -2.6382491e-001
  4.4942681e-001
  3.4119637e-001
 -3.5875647e-001
 -2.4635974e-001
  4.4873938e-001
  3.2908891e-001
 -3.6983616e-001
 -2.4837171e-001
  4.5858701e-001
  3.5022997e-001
 -3.4724144e-001
 -2.4523882e-001
  4.2923823e-001
  3.0445411e-001
 -3.7506248e-001
 -2.3779133e-001
  4.5615857e-001
  3.2415600e-001
 -3.7295669e-001
 -2.4818970e-001
  4.4118349e-001
  3.1456947e-001
 -3.6513211e-001
 -2.2450915e-001
  4.5551002e-001
  2.9136179e-001
 -4.2264862e-001
 -2.7888828e-001
  4.3888236e-001
  3.1360047e-001
 -3.8631599e-001
 -2.5146701e-001
  4.4856559e-001
  3.0425297e-001
 -4.1168981e-001
 -2.7887386e-001
  4.4164040e-001
  3.2580528e-001
 -3.8344610e-001
 -2.7451544e-001
  4.1894163e-001
  3.1449529e-001
 -3.4709608e-001
 -2.0572464e-001
  4.7885655e-001
  3.4040567e-001
 -3.4681847e-001
 -2.0572079e-001
  4.8856411e-001
  3.6133648e-001
 -3.1506982e-001
 -1.8012927e-001
  4.7714250e-001
  2.9835083e-001
 -4.0499477e-001
 -2.5470377e-001
  4.3850726e-001
  2.8788733e-001
 -3.9957439e-001
 -2.4027296e-001
  4.4975600e-001
  2.8239166e-001
 -4.1597770e-001
 -2.5099843e-001
  4.2429578e-001
  1.7929153e-001
 -5.9867750e-001
 -3.3385401e-001
  7.4319444e-001
  1.0427450e+000
  5.3851856e-001
  4.8340056e-001
  7.6146862e-001
  2.8750584e-001
 -5.0167943e-001
 -3.0679029e-001
  4.3054362e-001
  2.8205353e-001
 -4.1245607e-001
 -2.4607543e-001
  4.5849812e-001
  3.0255528e-001
 -3.9456752e-001
 -2.3097304e-001
  4.8516849e-001
  3.5419327e-001
 -3.2985655e-001
 -1.8572085e-001
  4.8961986e-001
  3.3179758e-001
 -3.4451097e-001
 -1.7323526e-001
  5.2079452e-001
  3.6919171e-001
 -2.9173885e-001
 -8.2545872e-002
  6.5702416e-001
  5.2473618e-001
 -1.5657108e-001
  1.3129727e-002
  7.1783560e-001
  5.7484915e-001
 -9.9072425e-002
  7.0670098e-002
  7.6175311e-001
  5.9265348e-001
 -1.1618382e-001
  1.6687814e-002
  6.7631006e-001
  4.9120837e-001
 -2.2064501e-001
 -9.5412381e-002
  5.4291283e-001
  3.3808763e-001
 -3.7043841e-001
 -2.1794653e-001
  4.5624125e-001
  2.8762007e-001
 -3.8591133e-001
 -2.1045849e-001
  4.6148695e-001
  2.7303693e-001
 -4.1024117e-001
 -2.2009156e-001
  4.7207417e-001
  2.8215259e-001
 -4.2441944e-001
 -2.5237752e-001
  4.4918250e-001
  2.9122387e-001
 -3.8496082e-001
 -2.0391855e-001
  4.8380080e-001
  3.0170568e-001
 -3.9644393e-001
 -2.2862094e-001
  4.5809129e-001
  2.8729249e-001
 -3.9479232e-001
 -2.1823132e-001
  4.6533244e-001
  2.8542708e-001
 -4.0644665e-001
 -2.4083279e-001
  4.3516261e-001
  2.6208607e-001
 -4.0875754e-001
 -2.2867538e-001
  4.3769801e-001
  2.4374558e-001
 -4.3041004e-001
 -2.2880193e-001
  4.6180656e-001
  2.7259662e-001
 -4.1396965e-001
 -2.2487706e-001
  4.6120394e-001
  2.7118489e-001
 -4.1798673e-001
 -2.3353413e-001
  4.5024127e-001
  2.6363406e-001
 -4.1940725e-001
 -2.3236360e-001
  4.4912183e-001
  2.6047236e-001
 -4.1856236e-001
 -2.2109520e-001
  4.7085396e-001
  2.9605967e-001
 -3.6456763e-001
 -1.6316518e-001
  5.1407515e-001
  3.1609985e-001
 -3.6344123e-001
 -1.6577793e-001
  5.1496409e-001
  3.2345693e-001
 -3.4718477e-001
 -1.5340241e-001
  4.9614663e-001
  2.5684412e-001
 -4.4310960e-001
 -2.3713758e-001
  4.5179895e-001
  2.4797953e-001
 -4.3725020e-001
 -2.3734259e-001
  4.3107718e-001
  2.0871140e-001
 -4.6900245e-001
 -2.4131923e-001
  4.1924717e-001
  1.2176585e-001
 -5.9474911e-001
 -1.6658643e-001
  9.9400552e-001
  1.2119896e+000
  5.5382181e-001
  3.7619498e-001
  6.0085643e-001
  1.6971202e-001
 -5.0030271e-001
 -2.2887245e-001
  4.6618891e-001
  2.5554438e-001
 -4.0863704e-001
 -1.8957889e-001
  4.7679933e-001
  2.5505230e-001
 -4.1793001e-001
 -1.9925517e-001
  4.7984792e-001
  2.7675565e-001
 -3.7942016e-001
 -1.5192595e-001
  5.2190943e-001
  3.0211600e-001
 -3.6894838e-001
 -1.4295117e-001
  5.4152238e-001
  3.3718827e-001
 -3.1486344e-001
 -6.4814216e-002
  6.4931359e-001
  4.7130683e-001
 -1.6960391e-001
  7.2857106e-002
  7.5490452e-001
  5.3398630e-001
 -1.3763884e-001
  9.0633170e-002
  7.7310088e-001
  5.5181582e-001
 -1.4004027e-001
  4.4882098e-002
  6.7413802e-001
  4.1624991e-001
 -2.7623130e-001
 -6.2999558e-002
  5.9545131e-001
  3.4214436e-001
 -3.7342740e-001
 -1.9154672e-001
  4.5522897e-001
  2.2889887e-001
 -4.2798870e-001
 -1.8794416e-001
  4.8388543e-001
  2.4311885e-001
 -4.4482237e-001
 -2.2199269e-001
  4.6148174e-001
  2.5267111e-001
 -4.0905549e-001
 -1.8982226e-001
  4.6159464e-001
  2.2141002e-001
 -4.4191588e-001
 -1.9370871e-001
  4.9095114e-001
  2.6218662e-001
 -4.1594292e-001
 -1.9285641e-001
  4.7803848e-001
  2.5875598e-001
 -3.9643638e-001
 -1.6388199e-001
  4.8656279e-001
  2.3059931e-001
 -4.4696025e-001
 -2.0674266e-001
  4.6878578e-001
  2.3240030e-001
 -4.4171673e-001
 -2.1002296e-001
  4.5529871e-001
  2.1410274e-001
 -4.5944504e-001
 -2.2267230e-001
  4.5440578e-001
  2.3101068e-001
 -4.2890483e-001
 -1.9725262e-001
  4.5554717e-001
  2.0957937e-001
 -4.5163896e-001
 -2.0501928e-001
  4.5907927e-001
  2.1142938e-001
 -4.5568744e-001
 -2.0822259e-001
  4.6271471e-001
  2.2062308e-001
 -4.4639737e-001
 -2.0276633e-001
  4.6400378e-001
  2.1867512e-001
 -4.5237624e-001
 -2.1313298e-001
  4.5552033e-001
  2.2048351e-001
 -4.4254901e-001
 -2.0781189e-001
  4.5153583e-001
  2.3267219e-001
 -3.8297394e-001
 -1.1561494e-001
  5.2751123e-001
  2.5651858e-001
 -3.9850263e-001
 -1.2511000e-001
  5.4314659e-001
  2.8183515e-001
 -3.8323599e-001
 -1.2647927e-001
  5.2599423e-001
  2.4458809e-001
 -4.4457458e-001
 -2.0398055e-001
  4.5208688e-001
  1.9577941e-001
 -4.5656632e-001
 -1.8626295e-001
  4.7574112e-001
  2.0483273e-001
 -4.6180966e-001
 -1.9972694e-001
  4.2963702e-001
  8.3535731e-002
 -6.2033681e-001
 -1.9002505e-001
  8.8933733e-001
  1.0710729e+000
  5.5629500e-001
  5.6507392e-001
  7.9413132e-001
  2.2613722e-001
 -5.1387684e-001
 -2.1935449e-001
  4.6207139e-001
  2.0158998e-001
 -4.4026414e-001
 -1.5631748e-001
  4.9772024e-001
  2.1919325e-001
 -4.2961404e-001
 -1.3935150e-001
  5.2353323e-001
  2.3701734e-001
 -4.3638130e-001
 -1.6437669e-001
  5.0288990e-001
  2.3640730e-001
 -4.1697693e-001
 -1.2809103e-001
  5.5791442e-001
  3.0917118e-001
 -3.3598788e-001
 -4.7551321e-002
  6.4511347e-001
  4.1125129e-001
 -2.3070814e-001
  3.8324285e-002
  7.0001485e-001
  4.5893624e-001
 -1.5863759e-001
  1.2906864e-001
  7.8120238e-001
  5.0903023e-001
 -1.4428175e-001
  1.0696806e-001
  7.1626074e-001
  4.0605335e-001
 -2.6372617e-001
 -1.3959032e-002
  5.8572348e-001
  2.5467710e-001
 -4.2292891e-001
 -1.5090915e-001
  4.8841544e-001
  1.9259284e-001
 -4.5812696e-001
 -1.6033061e-001
  5.0056276e-001
  2.0926760e-001
 -4.5602587e-001
 -1.7682706e-001
  4.7644848e-001
  1.8983768e-001
 -4.6585098e-001
 -1.7652935e-001
  4.8645430e-001
  2.0255625e-001
 -4.6645287e-001
 -1.9884994e-001
  4.6059897e-001
  2.0534865e-001
 -4.2859664e-001
 -1.6057333e-001
  4.6062417e-001
  1.6990135e-001
 -4.6189867e-001
 -1.6647901e-001
  4.7129804e-001
  1.7365006e-001
 -4.7169031e-001
 -1.8192333e-001
  4.5742298e-001
  1.6644204e-001
 -4.6500627e-001
 -1.6028924e-001
  4.7871674e-001
  1.6738925e-001
 -4.8551464e-001
 -1.8038894e-001
  4.8004559e-001
  1.8649400e-001
 -4.7284898e-001
 -1.9183985e-001
  4.5380449e-001
  1.7254006e-001
 -4.5991245e-001
 -1.6501074e-001
  4.7097955e-001
  1.6936367e-001
 -4.8053877e-001
 -1.9990719e-001
  4.2591728e-001
  1.3198799e-001
 -4.8406482e-001
 -1.6204018e-001
  4.8234231e-001
  1.7429577e-001
 -4.7265873e-001
 -1.7894076e-001
  4.4863233e-001
  1.3883876e-001
 -4.9361527e-001
 -1.7685527e-001
  4.6632125e-001
  1.5611609e-001
 -4.8537708e-001
 -1.7495179e-001
  4.6487085e-001
  1.4625337e-001
 -5.0899482e-001
 -2.0521012e-001
  4.4942269e-001
  1.6718980e-001
 -4.5644817e-001
 -1.4731725e-001
  4.9339932e-001
  1.9284172e-001
 -4.3509002e-001
 -1.2006424e-001
  5.1621815e-001
  2.0245098e-001
 -4.3854686e-001
 -1.2855256e-001
  5.1337240e-001
  2.0299829e-001
 -4.5440862e-001
 -1.8256450e-001
  4.2374264e-001
  1.1088298e-001
 -5.1385750e-001
 -2.0516322e-001
  4.1443247e-001
  9.3230684e-002
 -5.4157727e-001
 -2.2746083e-001
  4.1424120e-001
  1.0280546e-001
 -5.8322730e-001
 -3.7016293e-001
  2.7274403e-001
  2.6505498e-001
  1.6189241e-001
  8.4684296e-001
  1.3667846e+000
  5.6281130e-001
 -5.1607704e-001
 -3.3586671e-001
  3.7847442e-001
  1.3973420e-001
 -4.9074567e-001
 -1.8513851e-001
  4.5664927e-001
  1.4346741e-001
 -4.9736984e-001
 -1.7641923e-001
  4.7287894e-001
  1.5903940e-001
 -4.9032119e-001
 -1.8867834e-001
  4.4634765e-001
  1.4633656e-001
 -4.6642508e-001
 -1.3441625e-001
  5.1049630e-001
  2.1064005e-001
 -4.0385917e-001
 -8.0746154e-002
  5.5416222e-001
  2.6524765e-001
 -3.0879857e-001
  5.0448808e-002
  6.7996153e-001
  3.5952124e-001
 -2.3865572e-001
  1.1872992e-001
  7.5153052e-001
  4.0980025e-001
 -2.2508369e-001
  1.0561201e-001
  7.2947108e-001
  3.8797903e-001
 -2.5705945e-001
  4.1091244e-002
  6.1864408e-001
  2.3912225e-001
 -4.2005229e-001
 -1.1513817e-001
  4.7873127e-001
  1.2142040e-001
 -5.0822407e-001
 -1.7217047e-001
  4.4480794e-001
  1.0050242e-001
 -5.2205025e-001
 -1.8227086e-001
  4.3622479e-001
  9.6537038e-002
 -5.1260499e-001
 -1.5762894e-001
  4.6041893e-001
  9.8737467e-002
 -5.3620865e-001
 -1.8398308e-001
  4.6185789e-001
  1.3494348e-001
 -4.9282570e-001
 -1.7077252e-001
  4.3602103e-001
  9.9202733e-002
 -5.0197369e-001
 -1.4646712e-001
  4.6770146e-001
  1.0903758e-001
 -5.2022601e-001
 -1.7652059e-001
  4.4749569e-001
  1.0777091e-001
 -5.1300591e-001
 -1.7898645e-001
  4.3438334e-001
  1.0794682e-001
 -4.7863878e-001
 -1.2573884e-001
  4.6230684e-001
  8.3234200e-002
 -5.3833563e-001
 -1.7984051e-001
  4.3814503e-001
  8.5284262e-002
 -5.2519746e-001
 -1.6446156e-001
  4.5662485e-001
  1.0986532e-001
 -4.9770589e-001
 -1.4466220e-001
  4.5932789e-001
  9.9342784e-002
 -5.0745228e-001
 -1.4700384e-001
  4.5719806e-001
  8.8221647e-002
 -5.2670678e-001
 -1.6436667e-001
  4.5255734e-001
  1.0120397e-001
 -4.9908370e-001
 -1.2890595e-001
  4.8506395e-001
  1.2710546e-001
 -4.7064819e-001
 -9.9378024e-002
  5.0861716e-001
  1.4391433e-001
 -4.5765649e-001
 -8.1414355e-002
  5.3176059e-001
  1.6242021e-001
 -4.5147291e-001
 -9.3377853e-002
  4.9711460e-001
  1.0711975e-001
 -5.1352377e-001
 -1.4107742e-001
  4.7834378e-001
  1.1534084e-001
 -4.9589684e-001
 -1.3639973e-001
  4.5925045e-001
  8.3426395e-002
 -5.2287561e-001
 -1.7154522e-001
  3.6613766e-001
 -7.3737952e-002
 -5.9291772e-001
  1.3417085e-001
  1.2287018e+000
  1.1283984e+000
  3.4190628e-001
  2.2821527e-001
  4.3010890e-001
 -3.7878678e-002
 -5.4109984e-001
 -9.2716430e-002
  4.9985903e-001
  1.1216402e-001
 -4.6761435e-001
 -8.0392796e-002
  5.0319167e-001
  1.2234553e-001
 -4.5231065e-001
 -6.1907790e-002
  5.1478025e-001
  1.1893586e-001
 -4.5432457e-001
 -3.3752067e-002
  5.7368607e-001
  1.7598614e-001
 -4.2208934e-001
 -1.0921570e-002
  6.1732247e-001
  2.4842365e-001
 -3.3480021e-001
  8.0240753e-002
  7.1859870e-001
  3.6195697e-001
 -2.2946785e-001
  1.5733391e-001
  7.6162498e-001
  3.8474093e-001
 -2.0410904e-001
  1.8980438e-001
  7.9473534e-001
  4.0762249e-001
 -2.0977082e-001
  1.4170917e-001
  7.0642033e-001
  2.9421600e-001
 -3.3893411e-001
 -7.7886566e-003
  5.3788324e-001
  1.3330664e-001
 -4.5719236e-001
 -7.5904702e-002
  4.9557935e-001
  9.2267702e-002
 -4.9934324e-001
 -1.0906703e-001
  4.7657249e-001
  8.6238007e-002
 -4.9358075e-001
 -9.4963440e-002
  4.9002441e-001
  9.3936906e-002
 -4.8576071e-001
 -8.2443043e-002
  4.9867757e-001
  8.8746899e-002
 -4.9710580e-001
 -7.7413136e-002
  5.3117286e-001
  1.3085800e-001
 -4.7587376e-001
 -8.9274707e-002
  5.0078250e-001
  1.0302674e-001
 -4.9501877e-001
 -1.0539251e-001
  4.8820626e-001
  1.0137876e-001
 -4.8891361e-001
 -1.0735704e-001
  4.7514425e-001
  9.9548397e-002
 -4.6199750e-001
 -7.3480901e-002
  4.7242259e-001
  5.0485740e-002
 -5.1356549e-001
 -7.7183831e-002
  5.1624368e-001
  9.2358435e-002
 -5.1851072e-001
 -1.2744739e-001
  4.6152139e-001
  7.5140699e-002
 -4.8762685e-001
 -7.2134274e-002
  5.0664482e-001
  9.0687923e-002
 -4.9687063e-001
 -8.6662857e-002
  5.0279295e-001
  9.7136185e-002
 -4.9466664e-001
 -1.0175347e-001
  4.7634994e-001
  8.1700926e-002
 -4.8504839e-001
 -7.8012891e-002
  4.9539581e-001
  1.0133824e-001
 -4.4560704e-001
 -1.7116844e-002
  5.5531071e-001
  1.3039881e-001
 -4.4310109e-001
 -9.2111745e-003
  5.7998417e-001
  1.5328334e-001
 -4.5051157e-001
 -4.9030008e-002
  5.3924266e-001
  1.3625952e-001
 -4.5580953e-001
 -7.4232678e-002
  4.8633911e-001
  8.4929141e-002
 -4.7457088e-001
 -6.1565408e-002
  5.0478460e-001
  8.6564653e-002
 -4.9668107e-001
 -1.0144289e-001
  4.5867388e-001
  3.1962605e-002
 -5.8808981e-001
 -2.2687345e-001
  4.4496646e-001
  4.1469308e-001
  3.6537139e-001
  1.0504036e+000
  1.3972226e+000
  4.5658010e-001
 -5.2033476e-001
 -1.8980318e-001
  4.7555858e-001
  1.2239297e-001
 -4.6022210e-001
 -6.0411618e-002
  5.1920073e-001
  1.1155228e-001
 -4.6219417e-001
 -4.8990608e-002
  5.2344740e-001
  1.1407030e-001
 -4.4135455e-001
 -9.6185888e-003
  5.6311959e-001
  1.4259025e-001
 -4.2128404e-001
  8.7548016e-003
  5.8652294e-001
  1.8081421e-001
 -3.5983793e-001
  9.2330390e-002
  6.8433995e-001
  2.8393566e-001
 -2.5580367e-001
  1.9233567e-001
  7.7519352e-001
  3.7491555e-001
 -1.6283841e-001
  2.7064904e-001
  8.2402942e-001
  3.9161371e-001
 -1.6118130e-001
  2.7078484e-001
  8.0892438e-001
  3.3896081e-001
 -2.5864870e-001
  1.4012689e-001
  6.6689522e-001
  2.0677934e-001
 -3.6981002e-001
  4.6879640e-002
  5.8184461e-001
  1.2652347e-001
 -4.4129754e-001
 -1.5790246e-002
  5.2069840e-001
  6.6956538e-002
 -4.8175585e-001
 -1.8447414e-002
  5.4886933e-001
  9.1353374e-002
 -4.9019666e-001
 -4.8157485e-002
  5.4412145e-001
  1.4313786e-001
 -4.0652917e-001
  3.6376413e-003
  5.2313563e-001
  7.1342862e-002
 -4.7008727e-001
 -1.2613647e-002
  5.4885887e-001
  1.1039232e-001
 -4.4153219e-001
 -3.4231369e-003
  5.4353599e-001
  1.0308622e-001
 -4.4214065e-001
 -4.0281858e-003
  5.2533925e-001
  5.8168610e-002
 -5.0299209e-001
 -5.8431691e-002
  4.9719556e-001
  6.5259261e-002
 -4.6687132e-001
 -1.2203466e-002
  5.3500367e-001
  8.8825394e-002
 -4.5378154e-001
 -7.9425747e-003
  5.2926692e-001
  7.9038781e-002
 -4.5548793e-001
 -1.0945030e-004
  5.3089710e-001
  5.9978509e-002
 -4.9090624e-001
 -3.2663352e-002
  5.1968827e-001
  7.4477665e-002
 -4.6277410e-001
 -1.2033786e-002
  5.1658114e-001
  5.2661266e-002
 -4.7829959e-001
  2.4949903e-004
  5.5283344e-001
  8.5777401e-002
 -4.7445701e-001
 -2.8485689e-002
  5.1349562e-001
  6.5818896e-002
 -4.5962181e-001
  1.8366858e-002
  5.7527556e-001
  1.2285727e-001
 -4.1519644e-001
  4.4966993e-002
  5.8680183e-001
  1.2659314e-001
 -4.2678280e-001
  1.0229288e-002
  5.4107366e-001
  1.0423427e-001
 -4.0208449e-001
  5.5137095e-002
  5.4687029e-001
  3.9894955e-002
 -5.0750704e-001
 -3.4961553e-002
  5.0465348e-001
  4.2961170e-002
 -4.7684617e-001
  1.9284787e-003
  5.2213267e-001
  1.9201096e-002
 -5.4776977e-001
 -1.0889379e-001
  3.9229616e-001
 -5.3947032e-002
 -3.8999807e-001
  4.8066492e-001
  1.4262092e+000
  1.0788685e+000
  2.6578174e-001
  2.6741983e-001
  4.7346299e-001
 -5.5535796e-002
 -5.1206851e-001
  7.7017176e-004
  5.2173294e-001
  5.5047085e-002
 -4.4503471e-001
  3.5698171e-002
  5.4334817e-001
  5.9744121e-002
 -4.5248320e-001
  3.4421269e-002
  5.5501329e-001
  7.4935559e-002
 -4.3821376e-001
  5.6059426e-002
  5.8946956e-001
  1.1596349e-001
 -3.9904695e-001
  9.4693760e-002
  6.3821604e-001
  1.8489443e-001
 -3.0685946e-001
  1.9992959e-001
  7.4233942e-001
  2.8385498e-001
 -2.0888417e-001
  3.0618916e-001
  8.4918314e-001
  3.6691306e-001
 -1.6342021e-001
  3.1524577e-001
  8.3824994e-001
  3.5041007e-001
 -1.9344653e-001
  2.5119032e-001
  7.2812777e-001
  2.0134059e-001
 -3.6172320e-001
  8.4660254e-002
  5.8173945e-001
  8.9186656e-002
 -4.3731243e-001
  3.2807830e-002
  5.3869322e-001
  5.4412930e-002
 -4.5319504e-001
  3.8714440e-002
  5.5189120e-001
  5.3023252e-002
 -4.8130358e-001
 -8.4481776e-003
  5.1130073e-001
  4.6787305e-002
 -4.4715490e-001
  4.1161270e-002
  5.4281835e-001
  4.8029338e-002
 -4.6417000e-001
  2.2952446e-002
  5.3284317e-001
  5.2133557e-002
 -4.4342134e-001
  4.9436299e-002
  5.4270414e-001
  3.4297786e-002
 -4.7350933e-001
  3.2152074e-002
  5.4425754e-001
  3.6237381e-002
 -4.9102854e-001
 -4.0231231e-003
  5.0895372e-001
  2.0283517e-002
 -4.8578706e-001
  1.1056474e-002
  5.2384324e-001
  3.3373435e-002
 -4.7285718e-001
  2.6076326e-002
  5.4685983e-001
  6.9341027e-002
 -4.3285869e-001
  4.5618732e-002
  5.2791091e-001
  2.0975273e-002
 -4.8489595e-001
  6.6463350e-003
  5.0388248e-001
  1.3365348e-002
 -4.6990880e-001
  4.0203700e-002
  5.3550149e-001
  2.5320355e-002
 -4.7461706e-001
  3.6390394e-002
  5.4368516e-001
  3.8837632e-002
 -4.7007240e-001
  2.7418351e-002
  5.3057116e-001
  3.1065168e-002
 -4.7531046e-001
  1.6626494e-002
  5.1742462e-001
  4.0566989e-002
 -4.2434099e-001
  8.6761142e-002
  5.7071790e-001
  6.2600197e-002
 -4.2084010e-001
  8.9551005e-002
  5.6836040e-001
  5.0184506e-002
 -4.2700118e-001
  1.0648783e-001
  5.9684099e-001
  5.3562501e-002
 -4.7273450e-001
  2.5020242e-002
  5.1743541e-001
  9.3986223e-003
 -4.7249216e-001
  5.0538432e-002
  5.3347361e-001
 -3.9823671e-003
 -4.9871819e-001
  3.7420524e-002
  5.0963141e-001
 -1.0642797e-001
 -6.6696268e-001
  1.3590934e-002
  9.3703847e-001
  8.5738667e-001
  4.7438668e-001
  7.1331490e-001
  8.0030864e-001
  2.9896973e-002
 -5.1975099e-001
  1.0765649e-002
  5.0516314e-001
 -4.3108128e-003
 -4.6868790e-001
  6.4641995e-002
  5.4752842e-001
  2.7191969e-002
 -4.4349204e-001
  9.5157999e-002
  5.8742060e-001
  6.2291440e-002
 -4.3048915e-001
  8.6300716e-002
  5.7684852e-001
  7.3700583e-002
 -3.9081921e-001
  1.3909321e-001
  6.2246875e-001
  1.0581378e-001
 -3.6047615e-001
  1.8662561e-001
  7.0521712e-001
  2.2949866e-001
 -2.0767071e-001
  3.4394472e-001
  8.3295263e-001
  3.1023620e-001
 -1.6842471e-001
  3.5367791e-001
  8.3336903e-001
  3.1804320e-001
 -1.5613264e-001
  3.4361021e-001
  7.6805309e-001
  1.9624584e-001
 -2.9438031e-001
  2.3205765e-001
  6.8445355e-001
  1.0331483e-001
 -4.2500113e-001
  7.9458320e-002
  5.5396086e-001
  2.2529356e-002
 -4.6546718e-001
  5.3529630e-002
  5.2904294e-001
  1.2690280e-003
 -4.7987761e-001
  4.3817151e-002
  5.2542523e-001
  9.1118064e-003
 -4.6294932e-001
  5.7770168e-002
  5.3111204e-001
  1.7607739e-002
 -4.4078241e-001
  8.7843528e-002
  5.5588660e-001
  3.3375112e-002
 -4.3217392e-001
  8.2062310e-002
  5.2395169e-001
 -2.0491888e-002
 -4.8504152e-001
  5.1438360e-002
  5.2115897e-001
 -2.8237039e-003
 -4.6191950e-001
  5.8998927e-002
  4.9703514e-001
 -5.2129483e-002
 -5.0815711e-001
  3.9676680e-002
  5.0330751e-001
 -3.7404458e-002
 -4.9553995e-001
  5.2178684e-002
  5.1904645e-001
 -2.2219027e-002
 -4.8715268e-001
  5.4604882e-002
  5.2333277e-001
 -1.2269955e-002
 -4.8118954e-001
  4.0814704e-002
  4.8845967e-001
 -4.7218238e-002
 -4.9232904e-001
  5.5768736e-002
  5.1343808e-001
 -2.2254057e-002
 -4.5982593e-001
  1.1235509e-001
  5.9306168e-001
  5.2564611e-002
 -4.2101621e-001
  9.6691315e-002
  5.3827391e-001
  1.6140074e-003
 -4.3994644e-001
  1.0809988e-001
  5.5840824e-001
  1.1802622e-002
 -4.4400294e-001
  8.8264662e-002
  5.1971413e-001
 -4.1080684e-002
 -4.9595758e-001
  5.0675829e-002
  4.9910660e-001
 -4.8827520e-002
 -4.9605712e-001
  5.3509885e-002
  5.0368019e-001
 -4.1693481e-002
 -5.0120451e-001
 -6.8379552e-003
  3.6012840e-001
 -1.8759036e-001
 -4.2202412e-001
  5.3694206e-001
  1.3628261e+000
  8.8699341e-001
  1.4849898e-001
  2.6389242e-001
  4.2741456e-001
 -1.5238618e-001
 -5.0374646e-001
  9.6554853e-002
  5.1285356e-001
 -6.8986360e-002
 -4.9560324e-001
  9.3632053e-002
  5.5063285e-001
 -1.4892334e-002
 -4.7321281e-001
  7.8292435e-002
  5.3432092e-001
  1.3326653e-003
 -4.2927772e-001
  1.1750223e-001
  5.5020405e-001
  1.2614545e-002
 -3.9124946e-001
  1.8474874e-001
  6.1737409e-001
  6.0489311e-002
 -3.3955127e-001
  2.7827853e-001
  7.5967369e-001
  2.1527341e-001
 -2.1975703e-001
  3.5582252e-001
  8.1853337e-001
  2.6821440e-001
 -1.8517272e-001
  3.4820706e-001
  7.7701906e-001
  2.3435240e-001
 -1.9198199e-001
  3.3367947e-001
  6.9705241e-001
  7.0927399e-002
 -3.9449038e-001
  1.5685897e-001
  5.7453869e-001
 -1.5914278e-002
 -4.7627443e-001
  7.2829421e-002
  5.0594161e-001
 -5.1613305e-002
 -4.8423425e-001
  6.8717293e-002
  4.8827352e-001
 -7.9472292e-002
 -5.0922521e-001
  5.4325529e-002
  4.8618483e-001
 -6.7490382e-002
 -4.8288130e-001
  8.8523628e-002
  5.1792424e-001
 -4.3948249e-002
 -4.6987139e-001
  8.6983197e-002
  5.0237838e-001
 -6.1417221e-002
 -4.7465715e-001
  9.4282154e-002
  5.0545226e-001
 -7.3507380e-002
 -4.9454300e-001
  8.0515090e-002
  5.0283184e-001
 -6.9584170e-002
 -4.8707074e-001
  9.9219251e-002
  5.4573222e-001
 -4.6644145e-004
 -4.1190529e-001
  1.4840227e-001
  5.5395032e-001
 -1.1824303e-002
 -4.0267472e-001
  1.9913537e-001
  6.3280874e-001
  6.8323177e-002
 -3.3008135e-001
  2.8205282e-001
  7.5076024e-001
  2.2488277e-001
 -1.6592052e-001
  4.0541803e-001
  8.0625855e-001
  2.2988824e-001
 -1.6812397e-001
  4.2196250e-001
  8.2588909e-001
  2.1033187e-001
 -2.5933751e-001
  2.6336833e-001
  6.3896841e-001
  4.0395613e-002
 -3.9255696e-001
  1.5354439e-001
  5.2944874e-001
 -7.3919607e-002
 -4.9635443e-001
  7.7771927e-002
  4.8914452e-001
 -7.9162216e-002
 -4.7363958e-001
  1.1057724e-001
  5.0790475e-001
 -9.0406139e-002
 -5.0915498e-001
  7.8350958e-002
  5.0933219e-001
 -4.7983575e-002
 -4.5091286e-001
  1.1609608e-001
  5.1495798e-001
 -5.2078948e-002
 -4.4140531e-001
  1.3095625e-001
  5.0866413e-001
 -8.4472285e-002
 -4.7414841e-001
  1.2111045e-001
  5.1368984e-001
 -9.0380358e-002
 -4.9888700e-001
  9.8135071e-002
  5.1711450e-001
 -6.2585334e-002
 -4.7668040e-001
  9.0413017e-002
  4.9220771e-001
 -6.6900409e-002
 -4.4458056e-001
  1.2751450e-001
  4.8854815e-001
 -1.1637578e-001
 -4.9548268e-001
  1.2190264e-001
  5.3285059e-001
 -5.6268158e-002
 -4.5644697e-001
  1.2545571e-001
  5.0673300e-001
 -9.6969497e-002
 -4.9313437e-001
  1.1001715e-001
  5.1839415e-001
 -7.1805195e-002
 -4.7994442e-001
  9.8690434e-002
  5.0062151e-001
 -6.7752379e-002
 -4.5246099e-001
  1.2332246e-001
  5.0238263e-001
 -6.8747567e-002
 -4.2042737e-001
  1.8212093e-001
  5.5138667e-001
 -5.1270375e-002
 -4.2038356e-001
  1.9436827e-001
  5.7697129e-001
 -3.3655907e-002
 -4.2441564e-001
  1.6870299e-001
  5.3396322e-001
 -8.9351951e-002
 -4.7966422e-001
  1.2939728e-001
  5.0847465e-001
 -1.1892035e-001
 -5.1966513e-001
  9.8756001e-002
  5.1182284e-001
 -8.2232954e-002
 -4.7671472e-001
  1.0896993e-001
  4.4300805e-001
 -2.5225766e-001
 -6.5520981e-001
  1.8263276e-001
  1.0496673e+000
  8.7281841e-001
  5.1809486e-001
  7.5114306e-001
  7.0219285e-001
 -1.0639197e-001
 -4.9398237e-001
  1.2025085e-001
  4.7028402e-001
 -1.3091702e-001
 -4.5069454e-001
  1.9801925e-001
  5.6020159e-001
 -8.2421298e-002
 -4.7300095e-001
  1.3913870e-001
  5.2390345e-001
 -6.9356554e-002
 -4.2765004e-001
  1.8367509e-001
  5.4585379e-001
 -6.9757245e-002
 -4.3046423e-001
  2.0514612e-001
  6.0484667e-001
  1.7557631e-002
 -3.3369920e-001
  3.0158966e-001
  7.0967288e-001
  1.3833809e-001
 -2.0795986e-001
  4.1523725e-001
  7.9741338e-001
  2.0305236e-001
 -1.5610294e-001
  4.5164926e-001
  8.1939370e-001
  2.1911540e-001
 -1.4514467e-001
  4.4014316e-001
  7.5835089e-001
  9.9002885e-002
 -3.0508027e-001
  2.7365363e-001
  6.0894936e-001
 -3.1024032e-002
 -4.2598541e-001
  1.5630073e-001
  5.0524469e-001
 -1.0024649e-001
 -4.5019285e-001
  1.6215629e-001
  5.1135975e-001
 -1.1489205e-001
 -4.8567477e-001
  1.2164531e-001
  4.8501617e-001
 -1.1526282e-001
 -4.6210704e-001
  1.5456545e-001
  5.1062896e-001
 -1.0409813e-001
 -4.6119226e-001
  1.5458053e-001
  5.1715891e-001
 -9.2000908e-002
 -4.5607727e-001
  1.3873238e-001
  4.8547463e-001
 -1.1256616e-001
 -4.4473951e-001
  1.7060187e-001
  5.0504498e-001
 -1.2479184e-001
 -4.7734601e-001
  1.4356186e-001
  4.9873015e-001
 -1.1579008e-001
 -4.7179904e-001
  1.2933436e-001
  4.6755440e-001
 -1.4182069e-001
 -4.7570792e-001
  1.3758895e-001
  4.6166849e-001
 -1.6974713e-001
 -5.0082901e-001
  1.4445727e-001
  4.9896424e-001
 -1.3297605e-001
 -4.9005241e-001
  1.3801797e-001
  5.0740130e-001
 -9.3835544e-002
 -4.4361954e-001
  1.5034175e-001
  4.6879531e-001
 -1.5854334e-001
 -4.9414863e-001
  1.3249279e-001
  4.7431783e-001
 -1.4604724e-001
 -4.8232998e-001
  1.4581759e-001
  4.9620658e-001
 -1.1182683e-001
 -4.4577876e-001
  1.6060498e-001
  4.6975461e-001
 -1.7127243e-001
 -5.0365386e-001
  1.3754686e-001
  4.9011966e-001
 -1.2539656e-001
 -4.6371419e-001
  1.4515881e-001
  4.6501392e-001
 -1.5160825e-001
 -4.5598831e-001
  1.9630557e-001
  5.3282042e-001
 -1.0984750e-001
 -4.4823471e-001
  1.9706811e-001
  5.5401667e-001
 -6.5092399e-002
 -4.0893017e-001
  2.0490192e-001
  5.3386236e-001
 -9.4550063e-002
 -4.3886283e-001
  1.6722444e-001
  4.8291593e-001
 -1.5164236e-001
 -4.9084379e-001
  1.3017209e-001
  4.7279053e-001
 -1.2940151e-001
 -4.5639988e-001
  1.4144244e-001
  4.5164670e-001
 -1.6381101e-001
 -5.1363723e-001
  9.2045989e-003
  2.6216195e-001
 -1.9695893e-001
 -7.1098024e-002
  1.0297987e+000
  1.5085374e+000
  6.3183459e-001
 -1.1524753e-001
  1.9840531e-001
  4.1386017e-001
 -1.9512181e-001
 -4.7643415e-001
  1.7190388e-001
  4.9299985e-001
 -1.4796280e-001
 -4.8220592e-001
  1.4491900e-001
  4.7893587e-001
 -1.3215525e-001
 -4.4461969e-001
  1.8141902e-001
  5.0512026e-001
 -1.0123429e-001
 -3.9672956e-001
  2.3038359e-001
  5.2769002e-001
 -1.0704503e-001
 -4.0322417e-001
  2.5071460e-001
  5.8318352e-001
 -1.9662325e-002
 -2.8709524e-001
  3.8214442e-001
  7.0756098e-001
  8.7607654e-002
 -1.9387166e-001
  4.7502599e-001
  8.0333978e-001
  1.6659776e-001
 -1.4792787e-001
  4.8423260e-001
  7.8287404e-001
  1.2664732e-001
 -2.0789586e-001
  3.9682232e-001
  6.6563362e-001
 -1.3076222e-002
 -3.5792653e-001
  2.4722434e-001
  5.2649280e-001
 -1.3128694e-001
 -4.4984131e-001
  1.7889223e-001
  4.7581146e-001
 -1.6963179e-001
 -4.8154852e-001
  1.5143201e-001
  4.6172191e-001
 -1.5630522e-001
 -4.4500967e-001
  1.8094425e-001
  4.5678629e-001
 -1.8707825e-001
 -4.6554216e-001
  1.9324379e-001
  4.8954545e-001
 -1.6101077e-001
 -4.5957989e-001
  1.8349316e-001
  4.7280098e-001
 -1.7882092e-001
 -4.7186582e-001
  1.8571121e-001
  4.9255243e-001
 -1.5431305e-001
 -4.6639978e-001
  1.5801031e-001
  4.4562365e-001
 -1.8783384e-001
 -4.6870567e-001
  1.7011964e-001
  4.4108639e-001
 -2.1858480e-001
 -5.0517127e-001
  1.5456933e-001
  4.5389755e-001
 -1.9163913e-001
 -4.8529898e-001
  1.5467865e-001
  4.3717577e-001
 -2.1057483e-001
 -4.9230667e-001
  1.6391083e-001
  4.5684023e-001
 -1.9385030e-001
 -4.9499819e-001
  1.3210474e-001
  4.0513962e-001
 -2.3627931e-001
 -5.0139412e-001
  1.6105765e-001
  4.4254561e-001
 -2.1971800e-001
 -5.1454266e-001
  1.3433076e-001
  4.2829729e-001
 -2.0939834e-001
 -4.9076625e-001
  1.5500867e-001
  4.4449569e-001
 -1.7793730e-001
 -4.3211406e-001
  2.1566952e-001
  4.8155568e-001
 -1.5977130e-001
 -4.1406221e-001
  2.3853905e-001
  4.9091612e-001
 -1.6589704e-001
 -4.0440614e-001
  2.8095299e-001
  5.2690195e-001
 -2.0319442e-001
 -5.3314533e-001
  1.2049641e-001
  4.1730865e-001
 -2.2866675e-001
 -5.0471189e-001
  1.5246558e-001
  4.2771148e-001
 -2.3005563e-001
 -4.9636502e-001
  1.6585447e-001
  3.9343032e-001
 -3.6414544e-001
 -6.5881732e-001
  2.3379938e-001
  9.7598376e-001
  7.1558461e-001
  4.4722087e-001
  7.2720589e-001
  5.7035471e-001
 -2.8486991e-001
 -5.4349590e-001
  1.5368029e-001
  4.1712998e-001
 -2.3146449e-001
 -4.4593567e-001
  2.5238961e-001
  5.0520921e-001
 -1.8761255e-001
 -4.6658440e-001
  1.9447419e-001
  4.5912368e-001
 -1.9638085e-001
 -4.4464624e-001
  2.2961135e-001
  4.9521926e-001
 -1.6311200e-001
 -4.1247493e-001
  2.6578686e-001
  5.4159619e-001
 -1.0118879e-001
 -3.3152625e-001
  3.6503208e-001
  6.5569894e-001
  1.4915634e-002
 -2.3165240e-001
  4.4641566e-001
  7.2892501e-001
  9.4595575e-002
 -1.4625899e-001
  5.0858334e-001
  7.4576578e-001
  7.0571773e-002
 -1.9259773e-001
  4.5390298e-001
  6.8168865e-001
 -1.1358474e-002
 -2.9998195e-001
  3.1922350e-001
  5.2851517e-001
 -1.6467691e-001
 -4.3605147e-001
  2.0495471e-001
  4.3081669e-001
 -2.4702928e-001
 -4.9576544e-001
  1.7516974e-001
  4.2871700e-001
 -2.3400185e-001
 -4.8418540e-001
  1.7267731e-001
  4.1184631e-001
 -2.5076899e-001
 -4.8161775e-001
  2.0444014e-001
  4.6545580e-001
 -1.9904245e-001
 -4.5995877e-001
  1.8519216e-001
  4.2421224e-001
 -2.2928430e-001
 -4.6581926e-001
  1.8592717e-001
  4.1156665e-001
 -2.4856301e-001
 -4.7014646e-001
  2.0120399e-001
  4.2917593e-001
 -2.4272009e-001
 -4.7220225e-001
  1.9753153e-001
  4.1850597e-001
 -2.6497025e-001
 -4.9127942e-001
  2.0727471e-001
  4.6264769e-001
 -2.1634661e-001
 -4.7902475e-001
  1.7285054e-001
  4.1292197e-001
 -2.4138673e-001
 -4.7257480e-001
  1.8240079e-001
  4.0068785e-001
 -2.6805010e-001
 -4.8720668e-001
  1.9496692e-001
  4.3266342e-001
 -2.3678946e-001
 -4.7505356e-001
  1.7855637e-001
  3.9594520e-001
 -2.6260490e-001
 -4.6019225e-001
  2.3960804e-001
  4.8102783e-001
 -1.9662102e-001
 -4.3755570e-001
  2.2805102e-001
  4.6040672e-001
 -1.9822916e-001
 -4.1393417e-001
  2.6039725e-001
  4.8049796e-001
 -2.0788159e-001
 -4.6023739e-001
  1.9163609e-001
  4.2311869e-001
 -2.2814405e-001
 -4.5433622e-001
  1.8781166e-001
  3.9429011e-001
 -2.6038710e-001
 -4.6811244e-001
  1.8469567e-001
  3.8066532e-001
 -3.0252526e-001
 -5.6756800e-001
  1.5700206e-002
  2.5711284e-001
 -9.1678860e-002
  2.3489635e-001
  1.2833794e+000
  1.3874812e+000
  2.2102589e-001
 -4.5602579e-001
  6.3025671e-002
  3.5155905e-001
 -2.4720700e-001
 -4.7568988e-001
  1.6045515e-001
  3.7464266e-001
 -2.7644835e-001
 -4.7521045e-001
  2.0963108e-001
  4.4141691e-001
 -2.1805997e-001
 -4.3557245e-001
  2.2446077e-001
  4.3663493e-001
 -2.1980558e-001
 -4.1489238e-001
  2.6581037e-001
  4.8850729e-001
 -1.5997471e-001
 -3.5129507e-001
  3.1882577e-001
  5.2832337e-001
 -1.0437768e-001
 -2.3979054e-001
  4.8413704e-001
  6.9421186e-001
  1.6238866e-002
 -1.7040175e-001
  5.3111286e-001
  7.4677945e-001
  6.6056852e-002
 -1.4681287e-001
  5.1313423e-001
  6.8534210e-001
 -2.6856947e-002
 -2.5786630e-001
  3.8924137e-001
  5.4903229e-001
 -1.7407742e-001
 -4.1149982e-001
  2.3866688e-001
  4.1661469e-001
 -2.7181592e-001
 -4.6716029e-001
  2.1445457e-001
  3.9971811e-001
 -3.0313194e-001
 -5.1600528e-001
  1.6756700e-001
  3.8212115e-001
 -2.8228987e-001
 -4.7821625e-001
  1.9069487e-001
  3.8237613e-001
 -2.8535508e-001
 -4.6747364e-001
  2.0909432e-001
  3.9346531e-001
 -2.8308720e-001
 -4.6431289e-001
  2.1864764e-001
  4.0847792e-001
 -2.6273856e-001
 -4.4244593e-001
  2.2596432e-001
  3.8438948e-001
 -3.1276182e-001
 -4.8998723e-001
  2.0434283e-001
  3.8742645e-001
 -3.0055831e-001
 -4.7550310e-001
  2.2753580e-001
  4.2226544e-001
 -2.6825755e-001
 -4.6845087e-001
  2.0115516e-001
  3.7884329e-001
 -3.0381671e-001
 -4.8542451e-001
  1.9739052e-001
  3.8434315e-001
 -2.8465324e-001
 -4.5501693e-001
  2.2076832e-001
  3.8362917e-001
 -3.0595343e-001
 -4.7998085e-001
  2.0052466e-001
  3.6271019e-001
 -3.3128389e-001
 -5.0067053e-001
  2.0034215e-001
  3.9157831e-001
 -2.8135996e-001
 -4.5336717e-001
  2.1886365e-001
  3.7700916e-001
 -3.0295291e-001
 -4.5013878e-001
  2.5798175e-001
  4.3147561e-001
 -2.6332749e-001
 -4.3068693e-001
  2.6888192e-001
  4.4916924e-001
 -2.3486690e-001
 -4.1081272e-001
  2.6411999e-001
  4.2613805e-001
 -2.5349876e-001
 -4.1081097e-001
  2.6787816e-001
  4.0732826e-001
 -2.9991259e-001
 -4.6406031e-001
  2.2825480e-001
  3.8259682e-001
 -3.1792019e-001
 -4.7450503e-001
  2.3555194e-001
  4.1056506e-001
 -2.8834521e-001
 -4.8446556e-001
  1.4325462e-001
  2.3864276e-001
 -4.2877296e-001
 -3.6420245e-001
  7.4442781e-001
  1.3012069e+000
  7.0303018e-001
  2.4674129e-001
  4.6997613e-001
  3.1058310e-001
 -4.2473308e-001
 -4.8431081e-001
  2.7089975e-001
  4.2203846e-001
 -2.7874478e-001
 -4.1660788e-001
  2.9074614e-001
  4.4190351e-001
 -2.5421180e-001
 -4.0292311e-001
  2.9080899e-001
  4.3968287e-001
 -2.4736745e-001
 -3.8434322e-001
  3.1532471e-001
  4.6225210e-001
 -2.2842248e-001
 -3.6172762e-001
  3.5345736e-001
  5.2588693e-001
 -1.3415513e-001
 -2.3821374e-001
  4.9037083e-001
  6.5286642e-001
 -3.4083258e-002
 -1.6996061e-001
  5.4418474e-001
  7.1346138e-001
  4.0018489e-002
 -8.9519209e-002
  6.0793151e-001
  7.4265746e-001
  3.0964056e-002
 -1.3973790e-001
  5.1340323e-001
  6.0863405e-001
 -1.2459940e-001
 -2.9464396e-001
  3.7054327e-001
  4.7858632e-001
 -2.3867000e-001
 -3.8343858e-001
  3.1174331e-001
  4.3963956e-001
 -2.7837534e-001
 -4.3650299e-001
  2.5427335e-001
  4.0128472e-001
 -2.8195005e-001
 -4.1214678e-001
  2.8828529e-001
  4.3678143e-001
 -2.4238828e-001
 -3.7602957e-001
  2.9892494e-001
  4.1161895e-001
 -2.8321231e-001
 -4.0086825e-001
  2.9963706e-001
  4.2099516e-001
 -2.7897724e-001
 -3.9305753e-001
  3.2824303e-001
  4.7025374e-001
 -2.3455209e-001
 -3.8478629e-001
  2.9156981e-001
  4.1518942e-001
 -2.6313485e-001
 -3.6060758e-001
  3.5159789e-001
  4.6402942e-001
 -2.6210848e-001
 -4.0341099e-001
  3.0309009e-001
  4.4572901e-001
 -2.5048053e-001
 -3.9461442e-001
  2.8414419e-001
  4.1352203e-001
 -2.5786471e-001
 -3.6167371e-001
  3.3007421e-001
  4.3148400e-001
 -2.8217517e-001
 -4.0888995e-001
  2.9119772e-001
  4.2499270e-001
 -2.4784986e-001
 -3.4720982e-001
  3.4746161e-001
  4.4460834e-001
 -2.7096483e-001
 -3.9243244e-001
  3.0789897e-001
  4.2464041e-001
 -2.7672599e-001
 -3.9554716e-001
  3.0600465e-001
  4.3763896e-001
 -2.2915756e-001
 -3.1931161e-001
  3.7304833e-001
  4.6549114e-001
 -2.4130933e-001
 -3.4123220e-001
  3.7389100e-001
  4.8887130e-001
 -2.1382727e-001
 -3.2585839e-001
  3.7170233e-001
  4.7349546e-001
 -2.3907520e-001
 -3.6120282e-001
  3.2977684e-001
  4.3687280e-001
 -2.6114577e-001
 -3.7538109e-001
  3.0726593e-001
  4.0103975e-001
 -2.9441153e-001
 -3.8562057e-001
  3.2125042e-001
  4.1014048e-001
 -3.4153581e-001
 -5.1579039e-001
  1.9078018e-001
  5.0974925e-001
  2.3712628e-001
  5.4201760e-001
  1.3244313e+000
  1.1108257e+000
 -5.2323502e-002
 -4.4488737e-001
  2.2621148e-001
  4.1525809e-001
 -2.3517317e-001
 -3.4435531e-001
  3.4701516e-001
  4.6483691e-001
 -2.1466065e-001
 -3.1470625e-001
  3.6969116e-001
  4.5936711e-001
 -2.3496804e-001
 -3.2476101e-001
  3.7592097e-001
  4.7644890e-001
 -2.0499157e-001
 -2.7927867e-001
  4.2496818e-001
  5.1262744e-001
 -1.7881028e-001
 -2.3981349e-001
  4.9760173e-001
  6.1853033e-001
 -5.6948003e-002
 -1.1785057e-001
  6.1258081e-001
  7.1956843e-001
  2.9743523e-002
 -4.5166102e-002
  6.7452693e-001
  7.8351595e-001
  9.2953471e-002
 -5.9703160e-003
  6.6388422e-001
  7.1383974e-001
 -2.2598384e-002
 -1.5160618e-001
  4.9640779e-001
  5.3963572e-001
 -1.7618276e-001
 -2.6899139e-001
  4.0038001e-001
  4.4267847e-001
 -2.6775946e-001
 -3.2553297e-001
  3.8933088e-001
  4.4728769e-001
 -2.8741045e-001
 -3.7624025e-001
  3.3796889e-001
  4.2774584e-001
 -2.7236805e-001
 -3.5069553e-001
  3.5286001e-001
  4.3409189e-001
 -2.6095411e-001
 -3.3310686e-001
  3.6267939e-001
  4.2739829e-001
 -2.7425649e-001
 -3.3743282e-001
  3.6942250e-001
  4.3466077e-001
 -2.7373924e-001
 -3.4152086e-001
  3.6396210e-001
  4.2637419e-001
 -2.8793561e-001
 -3.6058280e-001
  3.4588748e-001
  4.1714974e-001
 -2.8307112e-001
 -3.4396462e-001
  3.6457895e-001
  4.2678218e-001
 -2.9103862e-001
 -3.7270394e-001
  3.2453318e-001
  3.9942191e-001
 -2.8429268e-001
 -3.3627633e-001
  3.6019186e-001
  4.0688806e-001
 -3.0291340e-001
 -3.5809630e-001
  3.5072182e-001
  4.0710559e-001
 -3.0222819e-001
 -3.6004761e-001
  3.4955683e-001
  4.1093309e-001
 -2.9348013e-001
 -3.4942795e-001
  3.6585463e-001
  4.4159421e-001
 -2.4214803e-001
 -2.8521466e-001
  4.1330002e-001
  4.5882515e-001
 -2.3579415e-001
 -2.6820717e-001
  4.4065527e-001
  4.7221597e-001
 -2.4946029e-001
 -2.9040639e-001
  4.3102752e-001
  4.6774763e-001
 -2.7746512e-001
 -3.5507721e-001
  3.5077435e-001
  4.0636815e-001
 -3.0357295e-001
 -3.5725019e-001
  3.4797092e-001
  3.8719193e-001
 -3.3406605e-001
 -3.8135144e-001
  3.2972624e-001
  3.3490518e-001
 -4.4609195e-001
 -4.4769206e-001
  5.7366141e-001
  1.1103468e+000
  7.2452469e-001
  5.5975354e-001
  8.1488114e-001
  4.5013689e-001
 -3.8445005e-001
 -3.6253941e-001
  3.9575474e-001
  4.1782821e-001
 -3.0314738e-001
 -3.1871199e-001
  4.0182447e-001
  4.1895208e-001
 -3.0279623e-001
 -3.1773396e-001
  4.2109027e-001
  4.6563476e-001
 -2.4452192e-001
 -2.6916869e-001
  4.5172787e-001
  4.7591972e-001
 -2.5765270e-001
 -2.9585371e-001
  4.4423921e-001
  5.2063667e-001
 -1.6304851e-001
 -1.8837425e-001
  5.3199779e-001
  5.9665475e-001
 -6.9135713e-002
 -6.9759110e-002
  6.5491664e-001
  6.9201645e-001
 -1.5370423e-002
 -4.6492964e-002
  6.6267491e-001
  7.0293290e-001
  8.0715013e-003
 -3.0478551e-002
  6.3374421e-001
  6.0787462e-001
 -1.3596679e-001
 -1.8602504e-001
  4.8942960e-001
  4.7349949e-001
 -2.6656103e-001
 -3.0835466e-001
  3.8613935e-001
  3.9681948e-001
 -3.1250573e-001
 -3.2139791e-001
  4.0167849e-001
  4.2506468e-001
 -2.9673502e-001
 -3.3796127e-001
  3.5698084e-001
  3.8277101e-001
 -3.0372716e-001
 -3.0662056e-001
  3.9478164e-001
  3.9379171e-001
 -3.1951069e-001
 -3.2089116e-001
  4.0642596e-001
  4.2920966e-001
 -2.8288254e-001
 -3.0343102e-001
  3.9987380e-001
  4.0746005e-001
 -3.0542183e-001
 -3.1536904e-001
  4.0309224e-001
  4.2262726e-001
 -2.9094474e-001
 -3.1694535e-001
  3.8171423e-001
  3.9614354e-001
 -3.0381918e-001
 -3.1448370e-001
  3.8588531e-001
  3.9393964e-001
 -3.0650353e-001
 -3.1263211e-001
  3.8717420e-001
  3.9101264e-001
 -3.0772483e-001
 -3.0964267e-001
  3.8180264e-001
  3.6625203e-001
 -3.3686308e-001
 -3.0939958e-001
  4.2780653e-001
  4.3599158e-001
 -2.8678051e-001
 -3.0857046e-001
  3.8496953e-001
  3.8366662e-001
 -3.0935787e-001
 -2.8293750e-001
  4.4462183e-001
  4.4197762e-001
 -2.8512884e-001
 -3.0355006e-001
  3.9484241e-001
  3.9193909e-001
 -3.1623354e-001
 -3.1670818e-001
  3.9206640e-001
  3.9982894e-001
 -2.8611561e-001
 -2.6296992e-001
  4.4233274e-001
  4.2733880e-001
 -2.7061514e-001
 -2.3710388e-001
  4.8580476e-001
  4.6614557e-001
 -2.5663870e-001
 -2.4122351e-001
  4.7685455e-001
  4.4522930e-001
 -3.1160942e-001
 -3.3230510e-001
  3.8405548e-001
  3.9266752e-001
 -3.1366011e-001
 -3.0852396e-001
  4.0202514e-001
  3.9065709e-001
 -3.2933757e-001
 -3.2390239e-001
  3.8686378e-001
  3.4121506e-001
 -4.5282387e-001
 -4.6133784e-001
  4.6796159e-001
  9.1512416e-001
  6.2101344e-001
  6.8006778e-001
  1.0491718e+000
  6.1410293e-001
 -3.1480273e-001
 -3.1557872e-001
  4.2014520e-001
  3.9587427e-001
 -3.1489503e-001
 -2.7063038e-001
  4.5348049e-001
  4.1817378e-001
 -3.0714324e-001
 -2.8071726e-001
  4.4014907e-001
  4.2111806e-001
 -2.8574357e-001
 -2.5564761e-001
  4.5571287e-001
  4.2824714e-001
 -2.7421289e-001
 -2.2797981e-001
  5.0043294e-001
  4.8215637e-001
 -2.1666884e-001
 -1.6242280e-001
  5.8171402e-001
  5.8270324e-001
 -1.0487361e-001
 -5.2296331e-002
  6.8792708e-001
  6.8107226e-001
 -2.2870911e-002
  4.5508332e-003
  7.1500952e-001
  6.9305973e-001
 -1.0897959e-002
  9.2257129e-003
  6.9079160e-001
  6.2375758e-001
 -1.2541027e-001
 -1.4068526e-001
  5.2159174e-001
  4.5936449e-001
 -2.6311993e-001
 -2.4872597e-001
  4.2889941e-001
  3.7307537e-001
 -3.3337245e-001
 -2.8946842e-001
  4.1537824e-001
  3.7062940e-001
 -3.4079371e-001
 -3.1312447e-001
  3.7118838e-001
  3.1869056e-001
 -3.7017554e-001
 -2.9545915e-001
  4.2788463e-001
  3.7738766e-001
 -3.4241140e-001
 -3.0144177e-001
  4.1142735e-001
  3.7374334e-001
 -3.3192844e-001
 -2.9631311e-001
  3.9353505e-001
  3.4046653e-001
 -3.5037474e-001
 -2.7853467e-001
  4.3591176e-001
  3.7478952e-001
 -3.4550016e-001
 -2.9698745e-001
  4.1258153e-001
  3.5436619e-001
 -3.7086442e-001
 -3.3585926e-001
  3.6911819e-001
  3.3236138e-001
 -3.5215112e-001
 -2.8818448e-001
  4.0893689e-001
  3.3588315e-001
 -3.8076329e-001
 -3.2288131e-001
  3.8690023e-001
  3.2665256e-001
 -3.8260622e-001
 -3.1574182e-001
  4.0913948e-001
  3.6245365e-001
 -3.4890256e-001
 -3.0358721e-001
  3.9369722e-001
  3.3246221e-001
 -3.7278305e-001
 -3.0942368e-001
  4.0459705e-001
  3.5176769e-001
 -3.5727144e-001
 -3.1276863e-001
  3.7489383e-001
  3.0810542e-001
 -3.8855877e-001
 -3.1502446e-001
  3.9581871e-001
  3.3510339e-001
 -3.6887052e-001
 -3.0685908e-001
  3.9648619e-001
  3.3913794e-001
 -3.4441837e-001
 -2.5846564e-001
  4.5294212e-001
  3.9056649e-001
 -3.0540174e-001
 -2.2931748e-001
  4.7583606e-001
  3.9844722e-001
 -3.1814599e-001
 -2.6126233e-001
  4.3434214e-001
  3.6557875e-001
 -3.2909386e-001
 -2.5213569e-001
  4.4793300e-001
  3.6585186e-001
 -3.5450532e-001
 -3.0746743e-001
  3.7438546e-001
  3.0410140e-001
 -3.7646984e-001
 -2.9249244e-001
  3.9248115e-001
  2.8958503e-001
 -4.4554147e-001
 -4.2056379e-001
  2.6534621e-001
  3.5242004e-001
  6.3545545e-002
  6.0944420e-001
  1.4849758e+000
  1.1373856e+000
 -4.8675370e-002
 -3.1104844e-001
  3.2182076e-001
  3.0642845e-001
 -3.5860886e-001
 -2.8599368e-001
  4.1708889e-001
  3.5337335e-001
 -3.4342029e-001
 -2.6842129e-001
  4.3527891e-001
  3.5739139e-001
 -3.5903600e-001
 -3.0061723e-001
  4.0229795e-001
  3.5278727e-001
 -3.1977719e-001
 -2.4121296e-001
  4.4305694e-001
  3.7132538e-001
 -2.8798383e-001
 -1.7207967e-001
  5.3448101e-001
  4.6491868e-001
 -1.8717159e-001
 -4.9477629e-002
  6.6538379e-001
  5.6545401e-001
 -1.2774743e-001
 -9.2046837e-003
  7.0926916e-001
  6.1541828e-001
 -9.4788803e-002
 -1.0083806e-002
  6.7947030e-001
  5.6910562e-001
 -1.5127201e-001
 -8.3823582e-002
  5.7599696e-001
  4.3305216e-001
 -3.0783991e-001
 -2.4258678e-001
  4.3134715e-001
  3.1694696e-001
 -3.8552331e-001
 -2.8474787e-001
  4.0843853e-001
  2.9839717e-001
 -3.9875343e-001
 -2.8191110e-001
  4.2856300e-001
  3.2016900e-001
 -3.9617261e-001
 -3.0694441e-001
  3.9029586e-001
  2.9774567e-001
 -3.8415727e-001
 -2.7208050e-001
  4.1768658e-001
  3.0301157e-001
 -3.8515939e-001
 -2.5836807e-001
  4.4096563e-001
  3.0920403e-001
 -4.1067022e-001
 -3.0035011e-001
  4.0955582e-001
  3.0011342e-001
 -4.0558558e-001
 -2.9230528e-001
  4.1911220e-001
  3.1443323e-001
 -3.9093194e-001
 -2.8779787e-001
  4.1198791e-001
  3.0840369e-001
 -3.8549064e-001
 -2.8054085e-001
  4.0038835e-001
  2.7361256e-001
 -4.2241627e-001
 -2.9464983e-001
  4.1546314e-001
  3.0577753e-001
 -3.8932801e-001
 -2.7097870e-001
  4.2572801e-001
  3.0313990e-001
 -4.0214506e-001
 -2.8986403e-001
  4.0895802e-001
  2.9999475e-001
 -3.8671358e-001
 -2.6715067e-001
  4.1967138e-001
  2.9213698e-001
 -4.0166355e-001
 -2.7614790e-001
  4.1809050e-001
  2.9465771e-001
 -3.9481811e-001
 -2.6269075e-001
  4.4315263e-001
  3.3506312e-001
 -3.3638815e-001
 -1.9520333e-001
  4.8442673e-001
  3.2704580e-001
 -3.7946950e-001
 -2.4055799e-001
  4.6566105e-001
  3.3969931e-001
 -3.4308913e-001
 -1.9000218e-001
  5.0723977e-001
  3.4056138e-001
 -3.9316712e-001
 -2.6083344e-001
  4.5912369e-001
  3.2531306e-001
 -4.0468150e-001
 -2.9335206e-001
  4.1938444e-001
  3.1084393e-001
 -3.8357806e-001
 -2.6053919e-001
  4.1705756e-001
  2.1802974e-001
 -5.7992385e-001
 -4.2672240e-001
  5.9232840e-001
  1.0128551e+000
  7.2311442e-001
  7.7424039e-001
  9.7611220e-001
  3.5867408e-001
 -5.0372883e-001
 -2.9517231e-001
  4.7206979e-001
  3.2437121e-001
 -3.8569185e-001
 -2.2797448e-001
  4.7324350e-001
  3.1015494e-001
 -3.9209103e-001
 -2.2799318e-001
  4.7741604e-001
  3.1609383e-001
 -3.8679068e-001
 -2.1489071e-001
  5.1301187e-001
  3.7299197e-001
 -3.2832377e-001
 -1.6677065e-001
  5.5919363e-001
  4.2260213e-001
 -2.8946929e-001
 -1.4363278e-001
  6.0833674e-001
  5.7129660e-001
 -1.6734040e-002
  1.8232836e-001
  8.8168037e-001
  7.2946587e-001
  3.9823137e-002
  1.8308499e-001
  8.4213320e-001
  6.4810879e-001
 -7.5780199e-002
  4.8475070e-002
  7.0423696e-001
  5.1819777e-001
 -1.8876263e-001
 -4.4389886e-002
  6.2332267e-001
  4.3870635e-001
 -2.6350662e-001
 -9.7661074e-002
  6.0366820e-001
  4.4718805e-001
 -2.4684702e-001
 -9.3725141e-002
  5.8650722e-001
  4.1615362e-001
 -2.7737707e-001
 -1.1339871e-001
  5.8031414e-001
  4.2350365e-001
 -2.5796385e-001
 -8.9970762e-002
  5.9458784e-001
  4.2126999e-001
 -2.6983403e-001
 -1.0004157e-001
  5.8838490e-001
  4.1235254e-001
 -2.8412044e-001
 -1.1147286e-001
  5.8966124e-001
  4.2387105e-001
 -2.7900478e-001
 -1.2640878e-001
  5.6330950e-001
  4.1327416e-001
 -2.5723797e-001
 -8.8440816e-002
  5.8337417e-001
  4.0033090e-001
 -2.8487734e-001
 -1.0141922e-001
  5.9694369e-001
  4.2660306e-001
 -2.7399245e-001
 -1.2763631e-001
  5.3790242e-001
  3.6900886e-001
 -2.9073356e-001
 -9.6733096e-002
  5.8286848e-001
  3.8878645e-001
 -3.0386213e-001
 -1.2023374e-001
  5.7215594e-001
  3.9501480e-001
 -2.9142118e-001
 -1.1049604e-001
  5.8249649e-001
  4.1539175e-001
 -2.5095217e-001
 -5.2442423e-002
  6.3713545e-001
  4.5292207e-001
 -2.3306407e-001
 -5.1340762e-002
  6.2872674e-001
  4.3912071e-001
 -2.4191386e-001
 -4.4208766e-002
  6.4488593e-001
  4.3983196e-001
 -2.7914478e-001
 -1.1638422e-001
  5.6718382e-001
  3.8571167e-001
 -3.0605381e-001
 -1.3324443e-001
  5.4587665e-001
  3.6241211e-001
 -3.1745769e-001
 -1.2267909e-001
  5.6899942e-001
  3.5461795e-001
 -4.1534289e-001
 -2.9560200e-001
  5.0736904e-001
  6.9964162e-001
  4.7015797e-001
  8.5626770e-001
  1.3363023e+000
  7.3339480e-001
 -2.6853768e-001
 -1.8305556e-001
  5.1663160e-001
  3.5228133e-001
 -3.1358309e-001
 -1.0055229e-001
  5.9444202e-001
  3.9500139e-001
 -2.9212368e-001
 -8.0762091e-002
  6.3236516e-001
  4.6020724e-001
 -2.1862475e-001
 -3.5313910e-002
  6.3403404e-001
  4.4185218e-001
 -2.1950673e-001
 -8.7427732e-003
  6.6568265e-001
  4.5849610e-001
 -2.0834213e-001
  2.7219903e-002
  7.4951380e-001
  5.9126625e-001
 -5.1757703e-002
  1.6903272e-001
  8.4872175e-001
  6.4238247e-001
 -2.3968543e-002
  2.0254788e-001
  8.9230279e-001
  6.8648908e-001
  4.9130068e-003
  2.0134398e-001
  8.5351277e-001
  6.1177759e-001
 -8.9919479e-002
  1.0656333e-001
  7.6292657e-001
  5.0753990e-001
 -2.3025701e-001
 -6.8867610e-002
  5.8934878e-001
  3.8615659e-001
 -2.7446563e-001
 -5.3802319e-002
  6.2009162e-001
  3.9532681e-001
 -2.9958905e-001
 -1.0064656e-001
  5.8360161e-001
  4.0446269e-001
 -2.3744720e-001
 -2.3666873e-002
  6.2026363e-001
  3.8103359e-001
 -2.8959357e-001
 -6.1464943e-002
  6.0852473e-001
  3.7615412e-001
 -3.0671586e-001
 -8.8059035e-002
  5.9346299e-001
  3.9393117e-001
 -2.5334001e-001
 -2.6273195e-002
  6.1974124e-001
  3.6216388e-001
 -3.2102629e-001
 -8.3165681e-002
  6.0216601e-001
  3.7374727e-001
 -3.1135220e-001
 -9.4582540e-002
  5.7478191e-001
  3.4548015e-001
 -3.3206610e-001
 -1.0824723e-001
  5.6925049e-001
  3.5515844e-001
 -3.0711329e-001
 -8.5426574e-002
  5.6765857e-001
  3.2986254e-001
 -3.2204657e-001
 -5.3349054e-002
  6.5506187e-001
  4.3908782e-001
 -2.5561908e-001
 -6.6786005e-002
  5.8676878e-001
  3.8590942e-001
 -2.3674066e-001
  4.4185360e-003
  6.3892170e-001
  3.7492082e-001
 -2.9083113e-001
 -4.5808169e-002
  6.0749363e-001
  3.4125738e-001
 -3.4555528e-001
 -1.1481731e-001
  5.4758326e-001
  3.0848969e-001
 -3.5311793e-001
 -1.1623008e-001
  5.3849607e-001
  3.0178484e-001
 -3.4877400e-001
 -1.4385516e-001
  4.0825194e-001
  1.0924528e-001
 -3.4808238e-001
  3.7836790e-001
  1.5007198e+000
  1.3360032e+000
  3.3519161e-001
  1.3074759e-001
  5.3727288e-001
  2.5858221e-001
 -3.6965620e-001
 -1.1743289e-001
  5.4900453e-001
  3.3239856e-001
 -3.0790630e-001
 -7.7165061e-002
  5.5755378e-001
  3.1124965e-001
 -3.2827699e-001
 -7.1286159e-002
  5.8005079e-001
  3.2735303e-001
 -3.1938550e-001
 -5.4378988e-002
  6.0870616e-001
  3.5773157e-001
 -2.9215499e-001
 -2.2762303e-002
  6.5576590e-001
  4.2905872e-001
 -1.8933208e-001
  1.1531924e-001
  8.1274222e-001
  5.7043090e-001
 -8.9248546e-002
  1.6612824e-001
  8.3382803e-001
  5.9272877e-001
 -5.7227768e-002
  1.9595976e-001
  8.4009065e-001
  5.6477533e-001
 -1.0837092e-001
  1.3568204e-001
  7.6947695e-001
  4.6529515e-001
 -2.5795712e-001
 -6.5491530e-002
  5.4999265e-001
  2.8523228e-001
 -3.5497791e-001
 -8.5157683e-002
  5.6090945e-001
  2.8426271e-001
 -3.7368373e-001
 -1.0116450e-001
  5.6343795e-001
  3.0070420e-001
 -3.6203172e-001
 -1.1083143e-001
  5.3232118e-001
  2.6718946e-001
 -3.7466949e-001
 -9.6787538e-002
  5.5943015e-001
  2.9283420e-001
 -3.5427427e-001
 -8.2214326e-002
  5.6307250e-001
  2.8335551e-001
 -3.6803886e-001
 -9.0353305e-002
  5.5706641e-001
  2.6769265e-001
 -3.9580435e-001
 -1.1900237e-001
  5.3992320e-001
  2.6418845e-001
 -3.9287949e-001
 -1.1639404e-001
  5.3975407e-001
  2.6009023e-001
 -4.0183771e-001
 -1.2789299e-001
  5.3378596e-001
  2.6701815e-001
 -3.8765707e-001
 -1.2494998e-001
  5.1364943e-001
  2.3598904e-001
 -4.0351053e-001
 -1.1372981e-001
  5.3985236e-001
  2.5790841e-001
 -3.9433297e-001
 -1.1401143e-001
  5.3738127e-001
  2.6013509e-001
 -3.8468214e-001
 -1.0446873e-001
  5.3094196e-001
  2.3128982e-001
 -4.1867857e-001
 -1.1602033e-001
  5.6253225e-001
  3.0319094e-001
 -3.3753074e-001
 -5.3176986e-002
  5.9614510e-001
  3.1299605e-001
 -3.3537359e-001
 -5.1177677e-002
  6.0440715e-001
  3.3408522e-001
 -3.1513765e-001
 -6.8524226e-002
  5.2334291e-001
  2.1383042e-001
 -4.1217515e-001
 -1.0256411e-001
  5.3443364e-001
  2.2537333e-001
 -4.2405638e-001
 -1.3280513e-001
  5.0170254e-001
  2.0511581e-001
 -4.3148175e-001
 -1.6564554e-001
  3.8528352e-001
  3.2917518e-002
 -4.4752541e-001
  2.7976814e-001
  1.3959258e+000
  1.2788798e+000
  4.0080211e-001
  2.5308875e-001
  5.5262594e-001
  1.4793057e-001
 -4.5397598e-001
 -1.0836230e-001
  5.3954677e-001
  2.3420805e-001
 -4.0315798e-001
 -9.5173331e-002
  5.5352472e-001
  2.6664080e-001
 -3.5669938e-001
 -4.9144741e-002
  5.8080984e-001
  2.6613014e-001
 -3.7227910e-001
 -5.3613354e-002
  6.0565010e-001
  3.1737970e-001
 -3.1451819e-001
 -1.1170550e-002
  6.2751791e-001
  3.4075364e-001
 -2.5376014e-001
  1.0670696e-001
  7.7979910e-001
  4.7745679e-001
 -1.6638114e-001
  1.4406268e-001
  8.0100565e-001
  5.1925134e-001
 -9.9834244e-002
  2.1643862e-001
  8.5186039e-001
  5.2928095e-001
 -1.3651919e-001
  1.3133062e-001
  7.2503536e-001
  3.8211822e-001
 -2.7775966e-001
  8.7067565e-003
  6.1553127e-001
  2.7535870e-001
 -3.8388809e-001
 -8.8368813e-002
  5.4284862e-001
  2.4051406e-001
 -3.8571130e-001
 -8.6286664e-002
  5.1908267e-001
  1.9302374e-001
 -4.2354616e-001
 -8.6435770e-002
  5.5180664e-001
  2.3488617e-001
 -3.8764544e-001
 -6.0625367e-002
  5.6255678e-001
  2.2617751e-001
 -4.0817570e-001
 -7.4882423e-002
  5.6413610e-001
  2.3279383e-001
 -4.1398762e-001
 -9.4737746e-002
  5.4967835e-001
  2.4395810e-001
 -3.8062252e-001
 -6.5639591e-002
  5.5006482e-001
  2.1652318e-001
 -4.1435554e-001
 -8.7528173e-002
  5.4134000e-001
  2.1179793e-001
 -4.2359996e-001
 -1.0185636e-001
  5.3312640e-001
  2.2515737e-001
 -3.8810292e-001
 -6.9486577e-002
  5.3080939e-001
  1.8735715e-001
 -4.2567115e-001
 -7.2914607e-002
  5.5910432e-001
  2.1625538e-001
 -4.2161341e-001
 -9.3948316e-002
  5.2678240e-001
  1.8268129e-001
 -4.5246785e-001
 -1.1577847e-001
  5.2628246e-001
  2.1052080e-001
 -4.0921841e-001
 -8.4923763e-002
  5.2729803e-001
  1.9260425e-001
 -4.2090950e-001
 -7.9978079e-002
  5.3799911e-001
  1.9601542e-001
 -4.1589167e-001
 -5.3783825e-002
  5.8952036e-001
  2.6503816e-001
 -3.5138191e-001
 -2.0358881e-002
  5.8035861e-001
  2.2207097e-001
 -3.9303759e-001
 -2.5212290e-002
  6.1117361e-001
  2.5071490e-001
 -4.0731539e-001
 -8.9285792e-002
  5.2495441e-001
  1.7306733e-001
 -4.6443362e-001
 -1.2303674e-001
  5.2323607e-001
  2.0626101e-001
 -4.1942823e-001
 -1.0251728e-001
  5.0200200e-001
  1.4264591e-001
 -5.3505988e-001
 -2.5535224e-001
  4.4589344e-001
  4.3828649e-001
  2.8010261e-001
  8.9437313e-001
  1.3925248e+000
  6.5436053e-001
 -3.3663134e-001
 -1.6313502e-001
  4.5227634e-001
  1.5811664e-001
 -4.2092620e-001
 -5.9284541e-002
  5.5728356e-001
  2.0551537e-001
 -4.1306655e-001
 -7.1908426e-002
  5.2874665e-001
  1.7246103e-001
 -4.2836989e-001
 -5.5182174e-002
  5.7103427e-001
  2.2339721e-001
 -3.7969341e-001
 -1.1096660e-002
  6.1123542e-001
  2.5891814e-001
 -3.4887577e-001
  2.2495270e-002
  6.6492550e-001
  3.5420340e-001
 -2.1023057e-001
  1.7590384e-001
  7.9433324e-001
  4.3628424e-001
 -1.6118527e-001
  2.2098587e-001
  8.4800880e-001
  4.9639229e-001
 -1.1404609e-001
  2.2744828e-001
  7.9430891e-001
  3.8437112e-001
 -2.5499177e-001
  9.4726292e-002
  6.8633138e-001
  2.8850291e-001
 -3.6253277e-001
 -3.3169753e-002
  5.5213922e-001
  1.7014285e-001
 -4.5215141e-001
 -9.2497446e-002
  5.2299062e-001
  1.6920182e-001
 -4.4096379e-001
 -9.5800651e-002
  4.9639060e-001
  1.4435078e-001
 -4.3305747e-001
 -5.8537252e-002
  5.2723931e-001
  1.4329816e-001
 -4.5386490e-001
 -6.8789468e-002
  5.4328201e-001
  1.8017429e-001
 -4.1014054e-001
 -3.3877987e-002
  5.5485543e-001
  1.6432394e-001
 -4.3966217e-001
 -5.4603113e-002
  5.5349784e-001
  1.7163914e-001
 -4.4513245e-001
 -8.4596713e-002
  5.0991072e-001
  1.4008968e-001
 -4.4848335e-001
 -6.9142723e-002
  5.1856211e-001
  1.2678450e-001
 -4.7511519e-001
 -8.9171272e-002
  5.1676614e-001
  1.3749751e-001
 -4.6761241e-001
 -9.5177739e-002
  5.0241574e-001
  1.2990131e-001
 -4.6081684e-001
 -8.2761175e-002
  5.0867767e-001
  1.3461363e-001
 -4.4309034e-001
 -5.1944940e-002
  5.4045811e-001
  1.5951915e-001
 -4.2074321e-001
 -2.2565426e-002
  5.6596099e-001
  1.6432454e-001
 -4.3309289e-001
 -3.5581508e-002
  5.7266393e-001
  1.9780177e-001
 -3.8663418e-001
 -1.7093949e-003
  5.6776409e-001
  1.4380781e-001
 -4.7582623e-001
 -9.6907303e-002
  4.9254304e-001
  9.8093686e-002
 -4.9935892e-001
 -1.1222920e-001
  4.7855270e-001
  9.1115483e-002
 -4.9303110e-001
 -1.0850393e-001
  4.3864358e-001
 -9.3785337e-003
 -5.6522231e-001
  6.3427663e-002
  1.0638061e+000
  1.0309276e+000
  4.8600797e-001
  5.5922792e-001
  7.0080537e-001
  3.1960924e-002
 -5.7523322e-001
 -9.1839385e-002
  5.3765716e-001
  1.3232626e-001
 -4.4836919e-001
 -2.3114763e-002
  5.6809704e-001
  1.4479772e-001
 -4.5544808e-001
 -4.1241138e-002
  5.6196420e-001
  1.5901204e-001
 -4.3744867e-001
 -3.4048921e-002
  5.6941377e-001
  1.9004641e-001
 -3.7722822e-001
  3.6791347e-002
  6.3078951e-001
  2.4174706e-001
 -3.1799227e-001
  1.2139383e-001
  7.4249540e-001
  3.6687432e-001
 -2.0194620e-001
  2.0478142e-001
  7.9387886e-001
  4.0489209e-001
 -1.6309136e-001
  2.4856510e-001
  8.3384158e-001
  4.3446165e-001
 -1.5252271e-001
  2.1318062e-001
  7.2737837e-001
  2.6686638e-001
 -3.3553656e-001
  5.7357033e-002
  6.0579893e-001
  1.6116191e-001
 -4.3737419e-001
 -3.2551011e-002
  5.4178353e-001
  1.2352102e-001
 -4.6468739e-001
 -6.8661699e-002
  4.9229997e-001
  7.7480877e-002
 -4.8359611e-001
 -5.2406082e-002
  5.3085060e-001
  1.1783644e-001
 -4.5383653e-001
 -3.2984152e-002
  5.4629656e-001
  1.3433877e-001
 -4.3763502e-001
 -2.5158032e-002
  5.4105853e-001
  1.2321521e-001
 -4.4295081e-001
 -2.3359343e-002
  5.3953196e-001
  1.1071512e-001
 -4.5927943e-001
 -2.7446919e-002
  5.5409386e-001
  1.3067301e-001
 -4.5923916e-001
 -6.0565046e-002
  5.0754401e-001
  1.1358897e-001
 -4.2339886e-001
 -2.3657944e-003
  5.2598873e-001
  6.0751904e-002
 -5.1347790e-001
 -5.8647214e-002
  5.4925887e-001
  1.4754972e-001
 -4.2529821e-001
 -2.8282456e-002
  5.0859300e-001
  7.6166951e-002
 -4.6306387e-001
  1.1022253e-003
  5.8831405e-001
  1.6461038e-001
 -4.0897263e-001
  1.2780946e-002
  5.8527727e-001
  1.7440334e-001
 -3.7439472e-001
  5.9960202e-002
  6.2490176e-001
  1.9574826e-001
 -3.8446304e-001
 -6.6270198e-004
  5.1352945e-001
  7.2511937e-002
 -4.6767078e-001
 -2.7595791e-002
  5.1483186e-001
  7.0244742e-002
 -4.7686675e-001
 -3.0819571e-002
  5.2265006e-001
  7.9788614e-002
 -4.9674459e-001
 -1.2963340e-001
  3.5121346e-001
  1.4051216e-002
 -1.2752442e-001
  8.7456654e-001
  1.7266008e+000
  1.0557868e+000
 -6.5534537e-002
 -7.8135060e-002
  3.7713785e-001
  5.2465768e-002
 -4.1923212e-001
  4.4956419e-003
  5.2953394e-001
  9.5814004e-002
 -4.5179426e-001
 -2.5741875e-002
  5.2741618e-001
  1.1752880e-001
 -4.1293137e-001
  1.1125799e-002
  5.3515109e-001
  9.4993200e-002
 -4.3151575e-001
  2.9674530e-002
  5.9444429e-001
  1.7780578e-001
 -3.4817587e-001
  8.8471163e-002
  6.1787752e-001
  1.9592612e-001
 -2.7962846e-001
  2.3382751e-001
  7.9703053e-001
  3.3351390e-001
 -2.0651667e-001
  2.7724166e-001
  8.5233862e-001
  4.0533322e-001
 -1.5920052e-001
  2.6821329e-001
  7.9627761e-001
  3.3271292e-001
 -2.2588326e-001
  2.0201854e-001
  7.0706778e-001
  2.0559699e-001
 -3.8544883e-001
  2.9079159e-002
  5.4335122e-001
  7.0880382e-002
 -4.7905862e-001
 -2.4417477e-002
  5.1603917e-001
  5.2448592e-002
 -4.9967782e-001
 -4.8906831e-002
  4.9525384e-001
  4.6512477e-002
 -4.8871365e-001
 -3.4780996e-002
  4.9425965e-001
  2.8477079e-002
 -5.0389271e-001
 -2.5855850e-002
  5.2766141e-001
  6.5644487e-002
 -4.8782842e-001
 -4.2349697e-002
  4.8981109e-001
  3.3574560e-002
 -4.9052779e-001
 -1.3222200e-002
  5.2881012e-001
  5.2637167e-002
 -5.0669790e-001
 -5.5219425e-002
  4.8618100e-001
  2.8178658e-002
 -5.1581615e-001
 -6.4000642e-002
  4.7366594e-001
  2.4906278e-002
 -5.0027879e-001
 -4.0835591e-002
  4.8505883e-001
  1.9130128e-002
 -5.1528566e-001
 -5.6871398e-002
  4.7690951e-001
  3.4053332e-002
 -4.6005671e-001
  2.9152644e-002
  5.4870139e-001
  5.6863649e-002
 -4.8360444e-001
 -2.1692037e-003
  5.5590400e-001
  1.1333022e-001
 -4.0302004e-001
  6.0429043e-002
  5.6563897e-001
  6.4178767e-002
 -4.9204867e-001
 -4.0363707e-002
  4.7822788e-001
  5.7458109e-003
 -5.2059566e-001
 -5.2366107e-002
  4.6520464e-001
 -1.6629347e-002
 -5.4550598e-001
 -6.5396084e-002
  4.6695234e-001
 -2.9598392e-002
 -6.2534117e-001
 -2.1246686e-001
  3.9946189e-001
  2.5617559e-001
  1.9804034e-001
  9.8046039e-001
  1.4250068e+000
  5.4635808e-001
 -4.1210892e-001
 -1.5843570e-001
  3.7066050e-001
 -1.1780340e-002
 -4.7226587e-001
  1.1970541e-002
  5.1807371e-001
  2.9078365e-002
 -4.9099401e-001
 -5.5339559e-004
  5.3520458e-001
  6.1756004e-002
 -4.6858236e-001
 -3.3103037e-003
  5.1948482e-001
  6.5982066e-002
 -4.2298163e-001
  6.9654454e-002
  5.8856580e-001
  1.1944924e-001
 -3.7211240e-001
  1.2959643e-001
  6.5607903e-001
  2.0016257e-001
 -2.5969529e-001
  2.8453934e-001
  8.3242306e-001
  3.4468158e-001
 -1.8344140e-001
  2.9839595e-001
  8.2089847e-001
  3.5276533e-001
 -1.4496427e-001
  3.4025243e-001
  8.2874854e-001
  3.0055170e-001
 -2.6039362e-001
  1.7610079e-001
  6.4138427e-001
  1.2097204e-001
 -4.1195404e-001
  4.8235296e-002
  5.2129049e-001
  9.8827187e-003
 -4.9133630e-001
  1.6203648e-002
  5.2195156e-001
  1.1407696e-002
 -5.0549540e-001
 -4.2151049e-003
  5.1160344e-001
  1.4338769e-002
 -4.9868813e-001
 -2.6640567e-003
  5.0546814e-001
  2.4954908e-003
 -5.1120197e-001
 -6.2280721e-003
  5.2269097e-001
  4.0647411e-002
 -4.7282502e-001
  9.1078072e-003
  5.1629529e-001
  3.6227657e-002
 -4.6030601e-001
  2.6630196e-002
  5.2084249e-001
  3.1022722e-002
 -4.6122189e-001
  2.6432590e-002
  5.0207800e-001
 -1.1868601e-002
 -5.0851492e-001
 -2.7692223e-003
  4.9240537e-001
 -1.6501198e-002
 -5.1940871e-001
 -2.0783775e-002
  4.7366977e-001
 -2.4427252e-002
 -5.0522304e-001
  1.2435768e-002
  5.1574894e-001
  2.1630274e-002
 -4.5688728e-001
  6.8687145e-002
  5.7481999e-001
  6.5435516e-002
 -4.3770391e-001
  6.5588526e-002
  5.6736138e-001
  7.0654735e-002
 -4.2972264e-001
  4.3616419e-002
  4.9150930e-001
 -4.4596308e-002
 -5.4139463e-001
 -3.0227350e-002
  4.6297602e-001
 -3.7072187e-002
 -5.1442103e-001
 -7.6487621e-003
  4.6290072e-001
 -5.1024780e-002
 -5.2429354e-001
 -3.9223196e-002
  3.4927328e-001
 -2.1842871e-001
 -5.1844726e-001
  4.5832086e-001
  1.4261737e+000
  1.0651367e+000
  3.0893620e-001
  3.6641825e-001
  5.1588300e-001
 -1.0716223e-001
 -5.6840051e-001
 -1.4339622e-002
  4.9250136e-001
 -5.7420257e-003
 -4.8209142e-001
  2.2644595e-002
  4.8995078e-001
 -2.7318813e-002
 -4.9810863e-001
  2.9408308e-002
  5.2079426e-001
  1.9898101e-002
 -4.4434246e-001
  7.5740804e-002
  5.4662467e-001
  2.7123647e-002
 -4.3511779e-001
  1.0923774e-001
  6.1294887e-001
  1.2499559e-001
 -3.1085459e-001
  2.5074351e-001
  7.5167600e-001
  2.4178633e-001
 -2.1650373e-001
  3.2516633e-001
  8.0625543e-001
  2.7145418e-001
 -2.1859037e-001
  3.0444495e-001
  7.8813468e-001
  2.6479788e-001
 -2.2743852e-001
  2.6041039e-001
  6.8515954e-001
  1.1232483e-001
 -3.9185472e-001
  1.2026286e-001
  5.7755449e-001
  1.7864013e-002
 -4.9594509e-001
  7.0436056e-003
  4.8396097e-001
 -2.3442077e-002
 -4.8022554e-001
  4.9960875e-002
  5.1591685e-001
 -1.9237950e-002
 -4.9683183e-001
  2.6940963e-002
  4.9771545e-001
 -2.7033326e-002
 -4.9661281e-001
  2.5515633e-002
  4.8976043e-001
 -3.1043531e-002
 -4.8190198e-001
  5.5634392e-002
  5.1285904e-001
 -3.2475198e-002
 -5.0435809e-001
  2.7132478e-002
  4.8880334e-001
 -4.9390068e-002
 -5.1229642e-001
  3.2366931e-002
  5.0810741e-001
 -2.3280263e-002
 -4.9335346e-001
  3.2009285e-002
  4.8899582e-001
 -4.5754258e-002
 -5.0167785e-001
  4.3642158e-002
  5.1200123e-001
 -2.8219441e-002
 -5.0442589e-001
  1.8278076e-002
  4.8035975e-001
 -4.1499582e-002
 -4.9131528e-001
  4.0061317e-002
  4.9031966e-001
 -4.2958200e-002
 -4.9212353e-001
  3.8335372e-002
  4.7194086e-001
 -8.1174250e-002
 -5.2947157e-001
  2.4402320e-002
  4.8345412e-001
 -5.7610937e-002
 -4.9691250e-001
  7.2270279e-002
  5.4386248e-001
  5.5836965e-003
 -4.4872740e-001
  9.6093288e-002
  5.5240114e-001
  7.4208464e-003
 -4.5070459e-001
  8.4051573e-002
  5.2174429e-001
 -3.7779073e-002
 -4.9681400e-001
  4.6283297e-002
  4.8806192e-001
 -7.8665202e-002
 -5.4620779e-001
  7.8540086e-003
  4.8813544e-001
 -3.5848952e-002
 -4.9417010e-001
  2.6462733e-002
  4.6151539e-001
 -9.5139276e-002
 -5.8850888e-001
 -1.0437869e-001
  3.8960476e-001
  1.2688689e-001
  1.4105496e-001
  1.0455740e+000
  1.4795621e+000
  5.6370118e-001
 -3.2792669e-001
 -3.5487126e-002
  3.8686793e-001
 -8.6970941e-002
 -4.8667325e-001
  5.6803386e-002
  4.8706098e-001
 -5.7801440e-002
 -4.8891459e-001
  6.2600273e-002
  4.9736732e-001
 -5.4445626e-002
 -4.8349433e-001
  8.4653663e-002
  5.3361471e-001
 -2.1911196e-002
 -4.6997614e-001
  8.1817434e-002
  5.3725237e-001
  1.4663792e-002
 -3.9401491e-001
  1.7934059e-001
  6.3807495e-001
  1.2231145e-001
 -2.7285826e-001
  2.9991653e-001
  7.3116264e-001
  1.7695101e-001
 -2.2690007e-001
  3.7067727e-001
  8.2193674e-001
  2.5481083e-001
 -1.9987073e-001
  3.3587341e-001
  7.4573821e-001
  1.6182847e-001
 -3.0020165e-001
  2.2067791e-001
  6.0818922e-001
  1.1533942e-002
 -4.4118664e-001
  1.0475312e-001
  5.1869181e-001
 -5.6663900e-002
 -4.9391252e-001
  5.7409915e-002
  4.6513322e-001
 -1.1620352e-001
 -5.4173504e-001
  4.3191902e-002
  4.8893829e-001
 -7.4408312e-002
 -5.1108968e-001
  4.5997177e-002
  4.6987190e-001
 -9.5227154e-002
 -5.1665776e-001
  6.0101088e-002
  4.9682603e-001
 -6.8891757e-002
 -5.0477931e-001
  5.2606628e-002
  4.8095624e-001
 -7.5699670e-002
 -5.0027867e-001
  5.3203246e-002
  4.6899273e-001
 -8.8139598e-002
 -4.9999882e-001
  5.6475919e-002
  4.5231897e-001
 -1.2817144e-001
 -5.3941802e-001
  4.1962510e-002
  4.6548671e-001
 -1.0194075e-001
 -5.1783631e-001
  4.6031561e-002
  4.4746429e-001
 -1.3276788e-001
 -5.4261068e-001
  4.0493006e-002
  4.6216099e-001
 -1.0546975e-001
 -5.0247535e-001
  9.9678453e-002
  5.3276280e-001
 -3.5360842e-002
 -4.4689125e-001
  1.2790425e-001
  5.3359062e-001
 -5.8255799e-002
 -4.8411986e-001
  9.1952312e-002
  5.1059403e-001
 -6.8160762e-002
 -4.9484517e-001
  6.2202514e-002
  4.5332713e-001
 -1.4363831e-001
 -5.6325969e-001
  3.0369572e-002
  4.7101206e-001
 -9.7010295e-002
 -5.3037551e-001
  2.2171712e-002
  4.2437777e-001
 -1.8573550e-001
 -6.8664550e-001
 -1.6167745e-001
  4.2456969e-001
  2.9816293e-001
  3.5833228e-001
  1.0627600e+000
  1.1640932e+000
  1.1725493e-001
 -5.8908847e-001
 -5.9378634e-002
  4.0351447e-001
 -1.4794820e-001
 -5.6178123e-001
  2.0487812e-002
  4.5073770e-001
 -1.0125592e-001
 -4.9091819e-001
  8.7864058e-002
  4.8245305e-001
 -9.8389097e-002
 -4.8603565e-001
  1.1193029e-001
  5.1816720e-001
 -6.6073112e-002
 -4.6278608e-001
  1.3204861e-001
  5.4782439e-001
 -1.7473274e-002
 -3.9786477e-001
  2.0504383e-001
  6.3119511e-001
  9.4799896e-002
 -2.5157359e-001
  3.5612357e-001
  7.4834412e-001
  1.6167214e-001
 -2.0797096e-001
  4.1243018e-001
  8.1309430e-001
  2.0189301e-001
 -2.2510644e-001
  3.3313842e-001
  7.0056869e-001
  8.8596126e-002
 -3.2955874e-001
  2.2461447e-001
  5.7465127e-001
 -5.0662567e-002
 -4.6594366e-001
  1.0331122e-001
  4.7311589e-001
 -1.2708267e-001
 -5.1021173e-001
  9.0652901e-002
  4.8001947e-001
 -1.1539072e-001
 -5.0268158e-001
  9.2285805e-002
  4.7986565e-001
 -1.1213391e-001
 -4.9711639e-001
  9.2209896e-002
  4.7155613e-001
 -1.1384983e-001
 -4.6921970e-001
  1.5316824e-001
  5.3599968e-001
 -8.7611662e-002
 -4.9662116e-001
  1.0058522e-001
  5.0722826e-001
 -6.9232418e-002
 -4.5676643e-001
  1.1590284e-001
  4.8052457e-001
 -1.1413606e-001
 -4.8795643e-001
  1.0706532e-001
  4.8670037e-001
 -9.3946467e-002
 -4.5320058e-001
  1.3956771e-001
  4.9052324e-001
 -1.2509846e-001
 -4.9583888e-001
  1.1352862e-001
  4.8929042e-001
 -1.1069574e-001
 -4.7876861e-001
  1.2161131e-001
  4.7978567e-001
 -1.3254840e-001
 -4.8806728e-001
  1.4824818e-001
  5.4579962e-001
 -4.9040641e-002
 -4.2203734e-001
  1.8564683e-001
  5.6456686e-001
 -4.0099015e-002
 -4.2326768e-001
  1.6508727e-001
  5.3227536e-001
 -5.8814978e-002
 -4.1756588e-001
  1.7600856e-001
  5.1947600e-001
 -1.0098752e-001
 -4.7101355e-001
  1.2752062e-001
  4.8042290e-001
 -1.2709018e-001
 -4.7902666e-001
  1.3233311e-001
  4.8370306e-001
 -1.3041214e-001
 -4.9059075e-001
  7.9980765e-002
  3.4170103e-001
 -3.1789593e-001
 -4.9359607e-001
  5.6892265e-001
  1.3982551e+000
  9.3041591e-001
  2.9118386e-001
  4.4536789e-001
  4.9328718e-001
 -1.8415207e-001
 -4.9595068e-001
  1.3578269e-001
  4.8155445e-001
 -1.1898587e-001
 -4.4076596e-001
  1.8647237e-001
  5.2676377e-001
 -1.0021435e-001
 -4.4853168e-001
  1.7835560e-001
  5.3693345e-001
 -7.8474851e-002
 -4.3001491e-001
  1.9205340e-001
  5.5868095e-001
 -3.5906689e-002
 -3.6738238e-001
  2.6189759e-001
  6.2716306e-001
  3.7052310e-002
 -2.8092749e-001
  3.6214962e-001
  7.2902346e-001
  1.3206697e-001
 -1.8501210e-001
