 -5.4713746e-005
 -5.3731095e-004
 -7.3130803e-004
 -3.2281116e-004
  9.5211221e-005
 -1.7344893e-004
 -7.6900344e-004
 -9.1675895e-004
 -2.0294629e-003
 -4.7666136e-003
 -5.4985222e-003
 -1.4933653e-003
  1.0841322e-002
  2.5621869e-002
  2.9039602e-002
  2.1250777e-002
  9.0678324e-003
  7.4258178e-005
 -2.9604157e-003
 -4.0570513e-003
 -3.1129224e-003
  3.0801254e-004
  2.1886125e-003
 -3.6503741e-004
 -2.2276812e-003
  2.1656523e-003
  5.9664954e-003
 -1.9699824e-003
 -1.6789693e-002
 -2.0399866e-002
 -8.8526995e-003
 -6.4927759e-004
 -6.8813645e-003
 -1.3625965e-002
 -1.5807619e-002
 -4.7515434e-002
 -1.3255595e-001
 -1.9904044e-001
 -9.7462716e-002
  2.4109777e-001
  6.7342943e-001
  9.2230229e-001
  8.1702896e-001
  4.4754491e-001
  7.1867953e-002
 -1.1500698e-001
 -1.1226329e-001
 -4.3275185e-002
 -4.8148385e-003
 -4.3079397e-004
  9.2442443e-003
  3.5407779e-002
  5.3102784e-002
  4.5035701e-002
  2.4971383e-002
  1.5418846e-002
  1.9703055e-002
  2.7263029e-002
  3.4275975e-002
  4.5870943e-002
  6.0411063e-002
  6.7814114e-002
  6.6425374e-002
  6.8003267e-002
  8.2948907e-002
  1.0771534e-001
  1.3341721e-001
  1.6147202e-001
  1.9307453e-001
  2.2487581e-001
  2.5467447e-001
  2.8113588e-001
  3.0742403e-001
  3.2444394e-001
  3.2166551e-001
  3.1351093e-001
  3.2095471e-001
  3.3918621e-001
  3.3616324e-001
  2.9313761e-001
  2.3187801e-001
  1.8587955e-001
  1.5749254e-001
  1.2325305e-001
  7.6886641e-002
  4.0627343e-002
  2.8023087e-002
  2.1964199e-002
  3.0827223e-003
 -1.8563756e-002
 -1.9875101e-002
 -3.4359925e-003
  3.8752363e-003
 -8.8447085e-003
 -2.0585833e-002
 -1.0989895e-002
  8.9152810e-003
  1.4348627e-002
  3.8491236e-003
 -2.2075567e-004
  1.3346012e-002
  2.8867016e-002
  2.9246611e-002
  2.0809040e-002
  2.0965602e-002
  2.9122708e-002
  2.7682533e-002
  1.0683390e-002
 -3.6611616e-003
  2.2104159e-003
  2.0778587e-002
  2.8288268e-002
  1.3487568e-002
 -1.0749559e-002
 -2.5238036e-002
 -2.5128909e-002
 -1.9093258e-002
 -1.5071064e-002
 -1.4087567e-002
 -1.4200674e-002
 -1.4044598e-002
 -1.1263041e-002
 -4.2647833e-003
  2.8731521e-003
  3.4482952e-003
 -1.2442395e-003
 -1.3395476e-003
  7.1451981e-003
  1.2659038e-002
  2.2605844e-003
 -1.8166939e-002
 -2.9015686e-002
 -2.2262410e-002
 -1.1863693e-002
 -1.3098094e-002
 -2.0732857e-002
 -1.8088791e-002
 -3.0651317e-003
  7.3669755e-003
  4.5793039e-005
 -1.8728368e-002
 -2.9740836e-002
 -1.6472505e-002
  1.5390953e-002
  4.8152066e-002
  6.5226450e-002
  5.4986612e-002
  3.3565649e-002
  2.6459413e-002
  3.5446041e-002
  4.2031681e-002
  3.5571904e-002
  3.0574027e-002
  3.7277241e-002
  3.4963013e-002
  2.2624120e-003
 -3.9951587e-002
 -5.0583609e-002
 -2.8621699e-002
 -1.4435513e-002
 -2.6376531e-002
 -3.7325925e-002
 -2.8625021e-002
 -2.2053449e-002
 -3.2161834e-002
 -3.6548252e-002
 -3.5105467e-002
 -8.2006536e-002
 -1.7703536e-001
 -1.6317614e-001
  1.3735046e-001
  6.4658812e-001
  1.0038272e+000
  9.1259760e-001
  4.6558488e-001
  3.5686308e-002
 -1.2351228e-001
 -7.2579523e-002
 -3.1212923e-003
  7.2660065e-003
  2.0245399e-003
  1.0200800e-002
  8.5450885e-003
 -8.0406677e-003
 -8.4629734e-003
  1.3565569e-002
  2.3106934e-002
  4.6222107e-003
 -1.0729835e-002
  3.3648127e-003
  2.9005731e-002
  3.9789084e-002
  4.5428641e-002
  6.7667497e-002
  9.6138412e-002
  1.0404168e-001
  9.7448119e-002
  1.1262102e-001
  1.6180259e-001
  2.1893380e-001
  2.5314460e-001
  2.6515851e-001
  2.7821604e-001
  2.9362170e-001
  3.0417063e-001
  3.1662666e-001
  3.3596401e-001
  3.5042420e-001
  3.3813023e-001
  2.9681863e-001
  2.5143118e-001
  2.2210604e-001
  1.9980603e-001
  1.6532189e-001
  1.1917764e-001
  7.6578138e-002
  4.2130028e-002
  9.9231071e-003
 -1.3788985e-002
 -1.2012378e-002
  1.1490249e-002
  2.4873805e-002
  6.7164049e-003
 -2.3244897e-002
 -3.0920898e-002
 -1.4221188e-002
  3.9950812e-004
 -2.9339228e-004
 -3.5873769e-003
  1.1742814e-003
  4.2293136e-003
 -3.9747518e-003
 -1.1971359e-002
 -4.8646161e-003
  1.0573096e-002
  1.5523400e-002
  7.2743619e-003
 -4.8931480e-004
 -1.2427807e-003
 -3.5349984e-003
 -1.1798452e-002
 -1.6372837e-002
 -1.0312476e-002
 -2.6075738e-003
 -4.5617025e-003
 -1.1504785e-002
 -9.6648568e-003
  1.7230032e-003
  5.7591856e-003
 -9.8620157e-003
 -3.5586404e-002
 -4.8922877e-002
 -3.6628157e-002
 -7.6165771e-003
  1.4542892e-002
  1.2718299e-002
 -9.0730960e-003
 -3.0677595e-002
 -3.5351319e-002
 -2.5010672e-002
 -1.4557786e-002
 -1.2857761e-002
 -1.4467438e-002
 -1.0271567e-002
 -1.5225404e-003
  2.9844407e-003
  1.5400384e-003
  2.5626809e-003
  1.0210356e-002
  1.5142543e-002
  6.3827779e-003
 -1.0031288e-002
 -1.4310896e-002
  1.1289907e-003
  1.8559490e-002
  1.6516456e-002
 -1.3546324e-003
 -1.0827401e-002
 -6.6131873e-004
  1.3636762e-002
  1.4452738e-002
  6.0646595e-003
  1.0864741e-002
  3.2753109e-002
  5.2077276e-002
  5.8800856e-002
  5.7251257e-002
  5.8937030e-002
  6.4607531e-002
  6.3565790e-002
  5.5407155e-002
  4.9783827e-002
  5.1998681e-002
  5.6082167e-002
  5.2972206e-002
  4.0107358e-002
  2.1920740e-002
  5.0498029e-003
 -4.5088460e-003
 -3.6369008e-003
  3.9305513e-003
  7.7906371e-003
  1.4688838e-003
 -9.3795464e-003
 -1.9719155e-002
 -4.4010848e-002
 -9.9160626e-002
 -1.5004336e-001
 -8.8411212e-002
  1.8202579e-001
  6.0598947e-001
  9.5049378e-001
  9.7733745e-001
  6.6605173e-001
  2.4412683e-001
 -2.3349247e-002
 -6.0445668e-002
  1.0838305e-002
  4.7544677e-002
  2.3316357e-002
 -2.8260953e-003
  6.7264392e-003
  3.2625719e-002
  4.5978297e-002
  4.5308123e-002
  4.2590055e-002
  4.1885807e-002
  4.3071561e-002
  5.0352378e-002
  6.4784792e-002
  7.5700598e-002
  7.2221628e-002
  6.2434316e-002
  6.7589676e-002
  9.6766594e-002
  1.3458298e-001
  1.5895201e-001
  1.6877106e-001
  1.8030103e-001
  2.0904080e-001
  2.5032832e-001
  2.8326478e-001
  3.0364903e-001
  3.1756324e-001
  3.2606103e-001
  3.2451452e-001
  3.1059491e-001
  2.9759280e-001
  2.9707776e-001
  2.9440590e-001
  2.6352448e-001
  2.0715349e-001
  1.5966560e-001
  1.4256067e-001
  1.3523434e-001
  1.0458387e-001
  5.2612639e-002
  1.4132754e-002
  9.5078284e-003
  2.1240869e-002
  2.2045168e-002
  8.2059345e-003
 -4.8260923e-003
 -6.5785315e-003
  1.1263689e-003
  1.3937082e-002
  2.6842231e-002
  3.0131124e-002
  1.9081006e-002
  5.7771503e-003
  6.5618645e-003
  1.8724713e-002
  2.3203319e-002
  1.4037707e-002
  1.0903851e-002
  2.9210217e-002
  5.2997427e-002
  5.3391283e-002
  2.8058585e-002
  5.2980931e-003
  6.6955682e-003
  2.0729372e-002
  2.4299321e-002
  1.5853006e-002
  1.1712133e-002
  1.7307252e-002
  1.9521175e-002
  1.0305774e-002
  1.4844231e-003
  7.8564460e-003
  2.3807229e-002
  2.8272720e-002
  1.2510276e-002
 -7.3160745e-003
 -1.0543239e-002
  3.9710950e-003
  1.9642728e-002
  2.2530666e-002
  1.1693768e-002
 -6.5614440e-003
 -2.3801630e-002
 -2.8223614e-002
 -1.1256377e-002
  1.6461719e-002
  2.6797835e-002
  3.5252724e-003
 -3.4315521e-002
 -5.0972534e-002
 -3.4962744e-002
 -7.5110199e-003
  8.6544369e-003
  1.3278430e-002
  2.2712005e-002
  3.5803706e-002
  3.5856363e-002
  2.7675941e-002
  2.9081294e-002
  4.6599807e-002
  6.4502385e-002
  6.5920544e-002
  6.1567145e-002
  6.9336321e-002
  8.2490689e-002
  7.7463982e-002
  4.9346764e-002
  2.0008186e-002
  5.4391237e-003
 -4.2719815e-003
 -2.0293051e-002
 -3.0945410e-002
 -2.1516825e-002
 -3.0931522e-003
  2.5702482e-003
 -2.1557374e-003
 -3.0909136e-003
 -1.9164779e-002
 -8.3778844e-002
 -1.5581687e-001
 -9.6805630e-002
  1.9588195e-001
  6.2443577e-001
  9.1623975e-001
  8.6145448e-001
  5.1204756e-001
  1.2212576e-001
 -9.1880178e-002
 -1.0790512e-001
 -4.0464540e-002
  9.4316845e-003
  2.1286002e-002
  1.7186330e-002
  1.4406844e-002
  1.8491006e-002
  3.0431818e-002
  4.3709960e-002
  4.6645093e-002
  3.8874810e-002
  3.6398824e-002
  5.0114700e-002
  6.8934563e-002
  7.6190031e-002
  7.5132866e-002
  8.4421562e-002
  1.0895963e-001
  1.3185171e-001
  1.3954212e-001
  1.4313635e-001
  1.6659594e-001
  2.1202831e-001
  2.5968176e-001
  2.8980752e-001
  2.9578589e-001
  2.9433921e-001
  3.0168366e-001
  3.2029151e-001
  3.4334284e-001
  3.5414821e-001
  3.4114200e-001
  3.0879477e-001
  2.7149973e-001
  2.3886165e-001
  2.0840557e-001
  1.7296781e-001
  1.3218540e-001
  9.3465866e-002
  6.3354154e-002
  4.4077470e-002
  3.6919613e-002
  4.1348243e-002
  5.0276128e-002
  5.1497543e-002
  3.8239006e-002
  1.7351496e-002
  3.3203643e-003
  3.0212266e-003
  8.9725306e-003
  9.0805204e-003
  1.6467622e-003
 -2.7895048e-003
  6.1744111e-003
  2.6407178e-002
  4.3457264e-002
  4.5126151e-002
  3.4955528e-002
  2.8731370e-002
  3.5792857e-002
  4.8383009e-002
  5.0046359e-002
  3.5144550e-002
  1.5685170e-002
  8.1800742e-003
  1.7972427e-002
  3.5913778e-002
  4.6705827e-002
  4.1853639e-002
  2.7576391e-002
  1.8092164e-002
  2.1049699e-002
  2.9564895e-002
  3.2282715e-002
  2.9304992e-002
  2.9218008e-002
  3.1633649e-002
  2.5094865e-002
  7.3359638e-003
 -3.9418917e-003
  6.1638862e-003
  2.7050890e-002
  3.7336072e-002
  3.2035096e-002
  3.3632258e-002
  5.6412765e-002
  7.9677586e-002
  8.8467171e-002
  9.2239303e-002
  1.0064286e-001
  1.0150726e-001
  7.8538414e-002
  4.9578864e-002
  4.8333490e-002
  7.2701328e-002
  8.4387233e-002
  6.4001455e-002
  3.5079804e-002
  2.2821636e-002
  2.0758663e-002
  1.5736153e-002
  1.4576522e-002
  2.0407186e-002
  1.4668235e-002
 -6.4883631e-003
 -1.3228959e-002
 -1.6378546e-003
 -3.1602030e-002
 -1.2633905e-001
 -1.5358485e-001
  7.6815632e-002
  5.4478771e-001
  9.3934414e-001
  9.4423263e-001
  5.7689057e-001
  1.5833424e-001
 -4.1735781e-002
 -3.6481506e-002
  4.4336575e-003
 -1.8884385e-003
 -9.3101342e-003
  2.2602740e-002
  5.8817972e-002
  6.0025357e-002
  4.4473830e-002
  4.8338227e-002
  6.7774183e-002
  7.3352773e-002
  5.9480541e-002
  4.8279889e-002
  5.3642335e-002
  6.6662748e-002
  7.5184579e-002
  7.8683188e-002
  8.2733160e-002
  9.1385377e-002
  1.0937473e-001
  1.3951433e-001
  1.7477134e-001
  2.0781622e-001
  2.3629912e-001
  2.6405014e-001
  2.9324240e-001
  3.1004001e-001
  3.1025534e-001
  3.0837179e-001
  3.1544931e-001
  3.2700712e-001
  3.2633088e-001
  3.0463836e-001
  2.7009575e-001
  2.3556949e-001
  2.0397969e-001
  1.7051903e-001
  1.3463255e-001
  1.0244704e-001
  7.9100475e-002
  6.2877201e-002
  4.7583497e-002
  2.8493197e-002
  7.6759807e-003
 -4.3086164e-003
  2.9047583e-003
  2.4206201e-002
  3.7913305e-002
  2.9154563e-002
  1.0782087e-002
  9.5667835e-003
  3.0481692e-002
  4.8463375e-002
  4.1090408e-002
  1.8118126e-002
  7.1299569e-003
  1.7613482e-002
  3.4374663e-002
  4.1570326e-002
  4.0397305e-002
  3.9307507e-002
  3.9091462e-002
  3.4645658e-002
  2.6115989e-002
  1.9403094e-002
  1.8813299e-002
  2.3746896e-002
  2.9498886e-002
  2.9892896e-002
  2.2845995e-002
  1.4865416e-002
  1.5285665e-002
  2.3974655e-002
  2.9974039e-002
  2.6997479e-002
  2.3106542e-002
  2.8524447e-002
  3.8021493e-002
  3.7842353e-002
  2.6758583e-002
  1.6949069e-002
  1.3654309e-002
  7.8555089e-003
 -4.5412508e-003
 -1.0247108e-002
  3.7937795e-003
  2.8607244e-002
  4.1300610e-002
  3.3886354e-002
  2.1775990e-002
  2.4063501e-002
  4.4015090e-002
  6.3040075e-002
  6.8064666e-002
  6.3297644e-002
  5.4530747e-002
  5.3786258e-002
  6.4042069e-002
  7.1655956e-002
  6.7673423e-002
  6.2657905e-002
  7.6794835e-002
  1.0478216e-001
  1.1034187e-001
  7.3473846e-002
  2.5250258e-002
  9.5870478e-003
  2.3137394e-002
  2.6474904e-002
  9.4167521e-003
  1.5962420e-003
  1.2905776e-002
  1.3825139e-002
 -5.4022126e-003
 -1.0968212e-002
 -4.1571422e-004
 -3.8575432e-002
 -1.3677456e-001
 -1.3680536e-001
  1.5516783e-001
  6.7886013e-001
  1.0721068e+000
  1.0115293e+000
  5.6205028e-001
  9.9802832e-002
 -9.0003509e-002
 -4.5002091e-002
  3.1989590e-002
  3.8970283e-002
  1.9354348e-002
  2.4589275e-002
  3.8228787e-002
  3.3192233e-002
  2.4284523e-002
  3.4644819e-002
  5.4641181e-002
  6.1526419e-002
  5.4395148e-002
  4.9318981e-002
  5.4092810e-002
  6.4003058e-002
  7.4842544e-002
  8.5332612e-002
  9.3796870e-002
  1.0138305e-001
  1.1476264e-001
  1.3786703e-001
  1.6535005e-001
  1.9704553e-001
  2.3510448e-001
  2.7213098e-001
  2.9421265e-001
  2.9133485e-001
  2.8523754e-001
  3.0530059e-001
  3.4081498e-001
  3.5568819e-001
  3.3390599e-001
  2.9635275e-001
  2.6892635e-001
  2.5041143e-001
  2.2367753e-001
  1.8503770e-001
  1.4552015e-001
  1.1041766e-001
  7.6033396e-002
  4.5137675e-002
  2.8099084e-002
  2.5949849e-002
  2.7091452e-002
  2.4907320e-002
  2.4478896e-002
  2.6252122e-002
  1.9074927e-002
  2.0659326e-003
 -2.6240966e-003
  2.1863482e-002
  5.5586975e-002
  6.2061523e-002
  3.7286781e-002
  1.5604136e-002
  2.2540694e-002
  4.2922785e-002
  4.9030138e-002
  4.0305632e-002
  3.5278073e-002
  3.7001429e-002
  3.1978034e-002
  1.7166542e-002
  7.8183839e-003
  1.4356478e-002
  2.6877933e-002
  3.0176415e-002
  2.2526319e-002
  1.1832556e-002
  3.9658468e-003
  2.7969325e-003
  1.1079978e-002
  2.4079597e-002
  2.8065259e-002
  1.5744241e-002
 -6.7069780e-004
 -3.6873280e-003
  5.5574396e-003
  9.9446647e-003
  2.0384710e-003
 -4.6612492e-003
  3.9710836e-003
  2.2351404e-002
  3.3655081e-002
  3.0562365e-002
  2.0205783e-002
  1.3739486e-002
  1.6220647e-002
  2.5576402e-002
  3.6337718e-002
  4.1849654e-002
  3.7438377e-002
  2.3907069e-002
  8.5426287e-003
  1.8570608e-003
  8.8134273e-003
  2.2181388e-002
  2.5849741e-002
  1.2234421e-002
 -5.5626457e-005
  1.0679627e-002
  4.3756872e-002
  7.5471723e-002
  7.8892335e-002
  6.5427525e-002
  6.6434103e-002
  8.3726580e-002
  9.0941621e-002
  7.4140457e-002
  5.5226769e-002
  5.7864519e-002
  6.9539850e-002
  6.1422388e-002
  3.3572809e-002
  1.1679348e-002
  5.7940986e-003
  3.1224908e-003
  1.0320846e-004
  9.3776710e-003
  2.8409581e-002
  3.3899881e-002
  1.9756614e-002
  3.5598274e-003
 -2.0287556e-002
 -7.9481005e-002
 -1.2827055e-001
 -1.0949144e-002
  3.7239976e-001
  8.5794935e-001
  1.0882137e+000
  8.6394084e-001
  3.7245958e-001
 -5.6701200e-003
 -8.3747792e-002
  1.0450016e-002
  6.7815414e-002
  3.8339682e-002
  6.0701598e-003
  2.2624010e-002
  5.5264489e-002
  6.7679684e-002
  6.7804377e-002
  7.0051066e-002
  6.7303831e-002
  5.8006107e-002
  6.0665169e-002
  8.1512767e-002
  9.6628535e-002
  8.8028802e-002
  7.5483723e-002
  8.7267806e-002
  1.1861562e-001
  1.4324186e-001
  1.5689715e-001
  1.8111567e-001
  2.2149493e-001
  2.5938264e-001
  2.7856116e-001
  2.8832308e-001
  3.1133833e-001
  3.3897381e-001
  3.4692379e-001
  3.3482676e-001
  3.2215603e-001
  3.2295908e-001
  3.2759557e-001
  3.1745282e-001
  2.9038920e-001
  2.5889933e-001
  2.2770769e-001
  1.9013881e-001
  1.4573441e-001
  1.0551646e-001
  7.6675294e-002
  5.3413312e-002
  3.0999170e-002
  1.8904761e-002
  2.5726588e-002
  3.9060052e-002
  3.8805330e-002
  2.8354944e-002
  3.2894279e-002
  6.2571361e-002
  9.3402434e-002
  9.6486664e-002
  7.4891667e-002
  5.5605290e-002
  5.1369920e-002
  4.9559754e-002
  3.8775808e-002
  2.8091795e-002
  3.1903822e-002
  4.6573095e-002
  5.6735454e-002
  5.6838410e-002
  5.2977724e-002
  4.6985301e-002
  3.4163686e-002
  1.8359951e-002
  1.5874242e-002
  3.3922280e-002
  5.4912846e-002
  5.4593549e-002
  3.2239843e-002
  1.2392116e-002
  1.3768343e-002
  2.9232744e-002
  3.8858627e-002
  3.4717615e-002
  2.5979369e-002
  2.3094407e-002
  2.7428144e-002
  3.5881888e-002
  4.5397629e-002
  5.0812165e-002
  4.6330626e-002
  3.3408744e-002
  2.1562719e-002
  2.0670187e-002
  3.7467556e-002
  6.4745758e-002
  8.8292876e-002
  9.7545118e-002
  8.2403600e-002
  5.5372652e-002
  4.4332638e-002
  5.8123059e-002
  7.9426986e-002
  8.6730052e-002
  8.1762445e-002
  7.9493398e-002
  7.7661307e-002
  5.8561311e-002
  2.2120884e-002
 -6.5312809e-003
 -9.5554481e-003
  3.8756187e-003
  1.7833917e-002
  2.9646661e-002
  3.9171452e-002
  3.9016618e-002
  2.9101481e-002
  1.6938149e-002
 -1.1895368e-002
 -7.9973538e-002
 -1.3106738e-001
 -8.9256361e-003
  3.7617924e-001
  8.5115092e-001
  1.0584504e+000
  8.0859090e-001
  3.0414219e-001
 -6.4432091e-002
 -1.1764061e-001
 -3.4560759e-003
  5.8701490e-002
  3.0795814e-002
  1.0571395e-002
  4.0235638e-002
  6.5497319e-002
  5.2059650e-002
  3.9648674e-002
  6.3039473e-002
  9.2282855e-002
  8.7841949e-002
  6.6544991e-002
  7.0376753e-002
  9.7661313e-002
  1.0995885e-001
  9.7544370e-002
  9.3160183e-002
  1.1798294e-001
  1.5121703e-001
  1.6982076e-001
  1.8863604e-001
  2.3257532e-001
  2.9464297e-001
  3.3564343e-001
  3.3441050e-001
  3.2172969e-001
  3.2977947e-001
  3.5546848e-001
  3.7481104e-001
  3.7219000e-001
  3.5846743e-001
  3.4688880e-001
  3.3061445e-001
  2.9686623e-001
  2.4917994e-001
  2.0272442e-001
  1.6415605e-001
  1.2839648e-001
  9.4361697e-002
  7.0905675e-002
  6.3217237e-002
  6.4246257e-002
  6.2807563e-002
  5.3370068e-002
  3.6862375e-002
  1.8399892e-002
  7.5720033e-003
  1.3560454e-002
  3.3294805e-002
  4.8345581e-002
  4.2925886e-002
  2.3816379e-002
  1.4684464e-002
  2.8661135e-002
  5.3262111e-002
  6.8131608e-002
  6.8024457e-002
  6.1611608e-002
  5.4859376e-002
  4.7450862e-002
  4.2805528e-002
  4.8345933e-002
  5.9425348e-002
  5.7472236e-002
  3.3355383e-002
  5.4976176e-003
  2.7010210e-003
  2.7432702e-002
  5.1647289e-002
  5.2675247e-002
  3.9203663e-002
  3.3422294e-002
  3.9371163e-002
  4.3188190e-002
  3.8627789e-002
  3.4481910e-002
  3.5392230e-002
  3.1518247e-002
  1.7212551e-002
  4.5397757e-003
  8.9364490e-003
  3.2199283e-002
  5.7770909e-002
  7.6390581e-002
  9.1230892e-002
  9.2336590e-002
  7.4569065e-002
  5.3295169e-002
  5.1618331e-002
  7.6544186e-002
  1.0629673e-001
  1.1500540e-001
  9.6223565e-002
  6.0022454e-002
  2.2058408e-002
  9.2148176e-004
  8.1935043e-003
  3.0431575e-002
  3.9303542e-002
  2.7580544e-002
  1.5898395e-002
  1.6545948e-002
  1.5753159e-002
  5.8262943e-003
 -9.0785110e-004
 -1.5735784e-002
 -7.9752663e-002
 -1.6258944e-001
 -9.7840846e-002
  2.6072660e-001
  7.8687669e-001
  1.0987437e+000
  9.2746679e-001
  4.2142307e-001
 -7.8798336e-003
 -1.1783985e-001
 -1.9420635e-002
  5.4267637e-002
  3.2147834e-002
 -2.2627221e-004
  1.5939093e-002
  4.6204377e-002
  5.1895084e-002
  4.7641515e-002
  5.3410547e-002
  5.4189286e-002
  3.7047953e-002
  2.3077463e-002
  3.4087713e-002
  5.8583759e-002
  7.3833715e-002
  7.9713031e-002
  8.6869219e-002
  9.2303702e-002
  9.1906952e-002
  1.0403441e-001
  1.5052991e-001
  2.1628346e-001
  2.6381935e-001
  2.7372588e-001
  2.6241291e-001
  2.6149385e-001
  2.7460427e-001
  2.9258058e-001
  3.1425985e-001
  3.3277326e-001
  3.3571220e-001
  3.1714387e-001
  2.8566421e-001
  2.5449040e-001
  2.2520441e-001
  1.8847439e-001
  1.4171220e-001
  9.7390703e-002
  6.8273610e-002
  5.2543256e-002
  3.9526058e-002
  2.5247706e-002
  1.5973613e-002
  1.6095391e-002
  2.0051786e-002
  1.9331225e-002
  1.3022427e-002
  7.3451256e-003
  6.4429642e-003
  6.7230456e-003
  3.0185736e-003
 -2.4219292e-003
 -7.1108275e-004
  1.2235868e-002
  2.6705548e-002
  2.8348474e-002
  1.7287800e-002
  1.1168143e-002
  2.3274187e-002
  4.2611069e-002
  4.4394549e-002
  2.2839864e-002
  4.4095593e-004
 -2.1497480e-005
  1.6361112e-002
  2.6419703e-002
  2.0179394e-002
  9.6210618e-003
  7.3829877e-003
  1.0239757e-002
  9.6665586e-003
  6.5839815e-003
  7.1472355e-003
  9.3943312e-003
  5.6657107e-003
 -2.2660835e-003
 -3.4244825e-003
  4.6459178e-003
  9.4201059e-003
  1.4095624e-004
 -1.5175214e-002
 -1.8961350e-002
 -7.9114664e-003
  1.7014588e-003
 -3.0673389e-003
 -1.3748834e-002
 -1.3687734e-002
 -1.8858071e-003
  6.0052546e-003
  1.7748672e-004
 -1.0097114e-002
 -1.1394846e-002
 -5.8263191e-003
 -5.1780501e-003
 -8.7652990e-003
 -3.2323135e-003
  1.5207495e-002
  3.6276391e-002
  4.3201424e-002
  3.6119090e-002
  3.4361981e-002
  4.3279921e-002
  5.7657844e-002
  7.0078078e-002
  7.2215333e-002
  6.3099848e-002
  5.0177783e-002
  4.6351544e-002
  5.4129273e-002
  5.6363075e-002
  3.4563518e-002
 -3.8647490e-003
 -2.9309743e-002
 -2.4771850e-002
 -3.8530032e-003
  9.5279519e-003
  5.1514710e-003
 -1.2510879e-002
 -3.1051997e-002
 -3.6191113e-002
 -3.1398163e-002
 -5.2348582e-002
 -1.1979438e-001
 -1.5281960e-001
  1.2537432e-002
  4.3594910e-001
  9.1281840e-001
  1.0953713e+000
  8.2974042e-001
  3.3026830e-001
 -3.6140318e-002
 -1.0956668e-001
 -2.4760364e-002
  2.1953732e-002
 -7.3333987e-003
 -2.8481168e-002
  6.5566319e-004
  3.4397494e-002
  3.0394415e-002
  8.4569686e-003
  4.5795842e-003
  1.7805737e-002
  2.8480189e-002
  3.5824347e-002
  4.9319961e-002
  6.0469237e-002
  5.0992453e-002
  2.7039352e-002
  2.0446714e-002
  5.0555669e-002
  9.9219950e-002
  1.3428702e-001
  1.4913263e-001
  1.6166800e-001
  1.9037044e-001
  2.2918026e-001
  2.5683034e-001
  2.7285761e-001
  2.8724664e-001
  3.0488667e-001
  3.1918781e-001
  3.1661213e-001
  2.9937179e-001
  2.8144797e-001
  2.6726100e-001
  2.4856037e-001
  2.2035447e-001
  1.8630270e-001
  1.4899313e-001
  1.0852504e-001
  7.2884387e-002
  5.5252517e-002
  5.3647855e-002
  4.6671111e-002
  2.2432901e-002
  1.5064219e-003
  1.0454563e-002
  3.9042437e-002
  4.7617090e-002
  1.9162986e-002
 -1.5827558e-002
 -2.0702759e-002
 -1.0406044e-003
  9.1128886e-003
 -2.9169433e-003
 -1.6255463e-002
 -1.1948102e-002
  1.8927390e-003
  8.5354134e-003
  9.3048673e-003
  1.6212479e-002
  2.9388315e-002
  3.5788013e-002
  2.8938439e-002
  1.6370835e-002
  6.4004564e-003
 -1.1607003e-003
 -8.1798947e-003
 -1.2901420e-002
 -1.4247354e-002
 -1.4265324e-002
 -1.3667387e-002
 -8.0237537e-003
  5.9948164e-003
  2.2708407e-002
  3.1525689e-002
  2.7005082e-002
  1.1117583e-002
 -8.9830628e-003
 -2.2818604e-002
 -2.1825802e-002
 -8.3537934e-003
  3.7786712e-003
  2.0841568e-003
 -1.1306036e-002
 -2.3463115e-002
 -2.6150770e-002
 -2.1753936e-002
 -1.4251642e-002
 -3.9320652e-003
  4.6675581e-003
  9.6616641e-004
 -1.7298224e-002
 -3.4014032e-002
 -3.0095539e-002
 -9.2764496e-003
  6.1276201e-003
  5.8310689e-003
 -1.0925206e-003
  5.3237148e-003
  3.1082029e-002
  5.6526580e-002
  7.1200600e-002
  7.7864721e-002
  7.5788395e-002
  6.1954400e-002
  4.2030419e-002
  3.4314328e-002
  4.3015297e-002
  4.4373758e-002
  1.9854062e-002
 -1.2416134e-002
 -2.3358501e-002
 -1.9783345e-002
 -3.2561825e-002
 -5.9351163e-002
 -6.2001847e-002
 -3.1751612e-002
 -1.0132491e-002
 -2.0883020e-002
 -3.2340716e-002
 -3.1809554e-002
 -7.7770012e-002
 -1.8673774e-001
 -2.0474560e-001
  6.8426360e-002
  5.8088451e-001
  9.7197216e-001
  9.1980255e-001
  4.9529101e-001
  7.0621120e-002
 -9.4435704e-002
 -6.0542530e-002
 -1.4367627e-002
 -1.4453306e-002
 -3.2131683e-003
  3.3413985e-002
  4.1436301e-002
  7.6867200e-003
 -1.3456869e-002
  6.6732992e-003
  2.9018127e-002
  2.2085854e-002
  1.5834238e-002
  4.4321253e-002
  8.2101133e-002
  8.3456347e-002
  5.5573673e-002
  4.6138295e-002
  7.2378715e-002
  1.0400725e-001
  1.1895590e-001
  1.3397750e-001
  1.6768017e-001
  2.1147790e-001
  2.4110108e-001
  2.5224593e-001
  2.6408877e-001
  2.7955557e-001
  2.9042627e-001
  2.9593404e-001
  2.9950849e-001
  3.0315696e-001
  3.0104679e-001
  2.8634810e-001
  2.5958004e-001
  2.2683375e-001
  1.9273207e-001
  1.5860392e-001
  1.2601072e-001
  9.6839948e-002
  7.0668722e-002
  4.5439359e-002
  2.0963914e-002
  4.3362074e-004
 -1.2147123e-002
 -1.5045483e-002
 -9.8699450e-003
 -2.0881782e-003
  6.3625368e-004
 -4.8126494e-003
 -1.2836109e-002
 -1.3871200e-002
 -4.5577853e-003
  8.2051737e-003
  1.4053030e-002
  8.6590520e-003
 -2.1685046e-003
 -6.1731408e-003
  6.4276073e-003
  3.2365242e-002
  5.4320702e-002
  5.4173785e-002
  3.0378341e-002
  1.1618138e-003
 -1.1692894e-002
 -3.2214658e-003
  1.3971029e-002
  2.5667149e-002
  2.8969719e-002
  3.0066130e-002
  3.2569241e-002
  3.3444422e-002
  2.9726041e-002
  2.5887911e-002
  2.9940566e-002
  4.2356530e-002
  5.2058815e-002
  4.7368189e-002
  3.0902927e-002
  1.8651537e-002
  2.2310014e-002
  3.6414212e-002
  4.5166643e-002
  4.1075882e-002
  3.3521982e-002
  3.6684517e-002
  5.2505896e-002
  6.7641373e-002
  6.5671679e-002
  4.3826734e-002
  1.7652915e-002
  7.2463759e-003
  1.9324409e-002
  4.2064258e-002
  5.7737978e-002
  5.9481609e-002
  5.3103588e-002
  4.5841302e-002
  3.8630533e-002
  3.0125684e-002
  2.1958263e-002
  1.7342799e-002
  1.7067283e-002
  2.0461105e-002
  2.7881546e-002
  3.7751738e-002
  4.3912570e-002
  3.9633979e-002
  2.6247433e-002
  1.4541497e-002
  1.4319710e-002
  2.5277563e-002
  3.8865365e-002
  4.6868141e-002
  4.5999344e-002
  4.0996190e-002
  4.4626429e-002
  6.0197330e-002
  8.1761472e-002
  9.7046135e-002
  9.1065970e-002
  7.6619775e-002
  7.9127963e-002
  1.0071620e-001
  1.1904447e-001
  1.1445197e-001
  9.6442396e-002
  8.4152674e-002
  7.4246146e-002
  5.1459373e-002
  2.3312067e-002
  1.5737814e-002
  3.1896827e-002
  4.5109003e-002
  4.0150780e-002
  3.2124287e-002
  3.1640152e-002
  2.5035449e-002
  1.0382251e-002
  1.0474841e-002
  1.4657016e-002
 -3.7968179e-002
 -1.4109605e-001
 -1.2386431e-001
  1.9984216e-001
  7.4246382e-001
  1.1178571e+000
  1.0104074e+000
  5.2467818e-001
  7.0681233e-002
 -7.7015632e-002
 -1.5820239e-003
  6.7299415e-002
  4.9712686e-002
  2.5443074e-002
  4.6673365e-002
  6.9521926e-002
  5.6540552e-002
  3.9669991e-002
  5.3110967e-002
  7.3222056e-002
  6.5968235e-002
  4.6593117e-002
  5.0455385e-002
  7.3822019e-002
  8.6137552e-002
  8.5431795e-002
  9.7120409e-002
  1.2397101e-001
  1.3834971e-001
  1.3314241e-001
  1.4271662e-001
  1.9280877e-001
  2.6175973e-001
  3.0146821e-001
  2.9899730e-001
  2.9216776e-001
  3.0534600e-001
  3.2706923e-001
  3.3668989e-001
  3.3012300e-001
  3.2349117e-001
  3.2363402e-001
  3.1744369e-001
  2.9322588e-001
  2.5719334e-001
  2.2347107e-001
  1.9651283e-001
  1.7050554e-001
  1.4022164e-001
  1.0610966e-001
  7.3016705e-002
  4.8858121e-002
  3.9860341e-002
  4.2039098e-002
  4.2009929e-002
  3.1994150e-002
  2.1591659e-002
  2.5474134e-002
  4.1438720e-002
  5.2410020e-002
  4.9594525e-002
  4.1913458e-002
  4.0026128e-002
  4.1329316e-002
  3.9238700e-002
  3.8873830e-002
  4.9151184e-002
  6.3498945e-002
  6.2554698e-002
  4.0977246e-002
  1.9082417e-002
  1.8753468e-002
  3.5452355e-002
  4.7393447e-002
  4.5285368e-002
  3.9487544e-002
  3.8274236e-002
  3.5961996e-002
  2.9595485e-002
  3.0934992e-002
  4.6812321e-002
  5.8607655e-002
  4.3209815e-002
  8.7630881e-003
 -9.9932909e-003
  3.1918627e-003
  2.5872560e-002
  3.2039338e-002
  2.7047634e-002
  2.9574675e-002
  3.4848798e-002
  2.3731174e-002
  2.3794915e-003
  1.1275991e-003
  2.7219233e-002
  4.6324592e-002
  3.1326269e-002
  4.4440293e-003
  3.8187095e-003
  3.6057486e-002
  6.8376735e-002
  7.2191070e-002
  6.3034497e-002
  6.3012498e-002
  6.9352170e-002
  7.1149409e-002
  7.2045552e-002
  8.4989693e-002
  1.0179601e-001
  9.5693661e-002
  5.9930063e-002
  2.3052182e-002
  1.2563617e-002
  2.0070157e-002
  2.0603575e-002
  1.3638554e-002
  1.8673918e-002
  3.3450236e-002
  3.1163720e-002
  9.1944884e-003
  2.9578926e-003
  2.1672297e-002
  5.0175356e-003
 -9.2852317e-002
 -1.7905727e-001
 -6.2237473e-002
  3.2323289e-001
  7.7165620e-001
  9.5882077e-001
  7.5396119e-001
  3.4082641e-001
  1.7473804e-002
 -8.0697895e-002
 -3.7287283e-002
  9.2234101e-003
  1.3079962e-002
  9.2021358e-003
  2.2368261e-002
  3.6502573e-002
  3.4641879e-002
  2.7764698e-002
  3.6409637e-002
  6.2500272e-002
  8.7341735e-002
  9.3147002e-002
  8.0599123e-002
  6.6281640e-002
  6.6009587e-002
  7.9161246e-002
  9.2020333e-002
  9.6788966e-002
  1.0446894e-001
  1.3259936e-001
  1.8164366e-001
  2.3235396e-001
  2.6108030e-001
  2.6843044e-001
  2.7625153e-001
  2.9250343e-001
  3.1226184e-001
  3.2658972e-001
  3.3272251e-001
  3.3576166e-001
  3.3113638e-001
  3.1013626e-001
  2.7766918e-001
  2.4966202e-001
  2.3076315e-001
  2.0633032e-001
  1.6449629e-001
  1.1561089e-001
  7.8715918e-002
  5.7189463e-002
  4.0887802e-002
  2.8288112e-002
  2.9323516e-002
  4.2366385e-002
  4.7299869e-002
  3.2885326e-002
  1.5817161e-002
  1.8683686e-002
  3.6589202e-002
  4.2826759e-002
  2.6011235e-002
  5.1498460e-003
  3.2240214e-003
  1.9292008e-002
  3.6162540e-002
  4.5250188e-002
  5.0602161e-002
  5.3269950e-002
  4.7725992e-002
  3.4406074e-002
  2.4817329e-002
  2.6922803e-002
  3.4396048e-002
  3.6693969e-002
  3.4122899e-002
  3.3529038e-002
  3.3615478e-002
  2.5673192e-002
  1.0435792e-002
  2.7270186e-003
  1.1360900e-002
  2.3993124e-002
  2.1505981e-002
  4.6329536e-003
 -5.8915727e-003
  2.9687142e-003
  2.0290623e-002
  2.8114783e-002
  2.4049057e-002
  2.0034456e-002
  2.3125117e-002
  2.6888178e-002
  2.3728496e-002
  1.6639995e-002
  1.3376100e-002
  1.5304271e-002
  1.7270385e-002
  1.5839334e-002
  1.3453126e-002
  1.3566342e-002
  1.5202975e-002
  1.7301347e-002
  2.3626468e-002
  3.4682728e-002
  5.1886108e-002
  7.1910435e-002
  8.0459887e-002
  7.7290936e-002
  7.3023671e-002
  7.3648439e-002
  7.6748990e-002
  7.7569647e-002
  8.1479654e-002
  9.0513752e-002
  8.8024832e-002
  5.8144719e-002
  1.5967280e-002
 -4.8050018e-003
  3.1884711e-003
  1.3192345e-002
  8.2046548e-003
  1.6577165e-003
  1.8807413e-003
 -8.1313518e-003
 -2.9960000e-002
 -2.9494000e-002
 -3.2001259e-003
 -2.0560511e-002
 -1.1580057e-001
 -1.5464289e-001
  7.0426941e-002
  5.5360146e-001
  9.7552967e-001
  9.9452301e-001
  6.1210112e-001
  1.5985878e-001
 -6.5639948e-002
 -5.9009311e-002
  5.9249751e-003
  2.4600453e-002
  2.1301880e-002
  3.3245771e-002
  4.4108325e-002
  3.4622850e-002
  2.1920736e-002
  2.4539429e-002
  3.3320368e-002
  3.7086221e-002
  4.4736502e-002
  6.3633101e-002
  7.9536438e-002
  7.8565298e-002
  7.1210727e-002
  7.4685910e-002
  8.7396613e-002
  9.7598623e-002
  1.0739834e-001
  1.2934908e-001
  1.6441750e-001
  2.0481301e-001
  2.4263369e-001
  2.7518403e-001
  3.0097131e-001
  3.0982993e-001
  3.0643139e-001
  3.0772171e-001
  3.1762842e-001
  3.2745508e-001
  3.2538059e-001
  3.0589008e-001
  2.7075696e-001
  2.2792383e-001
  1.9093578e-001
  1.7026603e-001
  1.6175349e-001
  1.4867155e-001
  1.1795275e-001
  7.3634084e-002
  3.2083091e-002
  7.8864612e-003
  5.8312008e-003
  1.9634120e-002
  3.4561004e-002
  3.5982996e-002
  2.1176537e-002
  3.3589635e-003
 -6.1357126e-004
  1.3022209e-002
  3.1855541e-002
  3.9681519e-002
  3.0429401e-002
  1.2580848e-002
  1.7225987e-003
  7.3739737e-003
  2.5414114e-002
  4.1385931e-002
  4.3628739e-002
  3.3896944e-002
  2.5136190e-002
  2.7924686e-002
  4.1329009e-002
  5.3950644e-002
  5.2979004e-002
  3.5903250e-002
  1.4304627e-002
  3.9710911e-003
  8.9853637e-003
  1.7583344e-002
  1.7239273e-002
  9.7560841e-003
  4.5707253e-003
  3.5562281e-003
  7.6725422e-005
 -7.4336092e-003
 -9.2143023e-003
  2.1261065e-003
  1.8121039e-002
  2.3642371e-002
  1.5068340e-002
  2.7331574e-003
 -2.1725614e-003
  1.4411497e-003
  6.1632968e-003
  5.7337846e-003
  8.1649002e-004
 -2.0772890e-003
  1.8202711e-003
  8.8406140e-003
  1.1150566e-002
  7.7399619e-003
  6.1354908e-003
  9.6039394e-003
  1.0344317e-002
  2.2853950e-003
 -5.3735187e-003
  5.9761032e-004
  1.3295723e-002
  1.2634063e-002
 -1.1960978e-003
 -3.9068888e-003
  2.6628728e-002
  7.2727696e-002
  8.9855875e-002
  7.1551392e-002
  5.1620748e-002
  5.7714695e-002
  7.9214541e-002
  8.6672505e-002
  7.8084236e-002
  7.3494140e-002
  7.6697703e-002
  6.9008787e-002
  4.1985385e-002
  1.2665467e-002
 -1.9524303e-003
 -5.4070367e-003
 -5.6738070e-003
  1.1807481e-003
  1.4615043e-002
  1.7741620e-002
  4.5302781e-003
 -3.5584517e-003
 -3.3720026e-007
 -2.8865171e-002
 -1.1561470e-001
 -1.6158436e-001
  8.5488930e-003
  4.3033534e-001
  8.7307573e-001
  1.0155458e+000
  7.6249395e-001
  3.3463243e-001
  2.9294605e-002
 -5.4130597e-002
 -2.3089613e-002
  2.0785101e-003
  5.9031509e-003
  1.9974648e-002
  3.8790999e-002
  3.7236271e-002
  2.4663431e-002
  3.1114382e-002
  5.4599351e-002
  6.2561088e-002
  4.3645764e-002
  2.4833840e-002
  2.8415310e-002
  4.1432490e-002
  4.4195187e-002
  4.4722028e-002
  6.3540895e-002
  9.5974651e-002
  1.1811975e-001
  1.2619197e-001
  1.4291932e-001
  1.8269427e-001
  2.2136174e-001
  2.3194968e-001
  2.2763244e-001
  2.3711914e-001
  2.7020978e-001
  3.0449529e-001
  3.1721311e-001
  3.1783308e-001
  3.2146804e-001
  3.1932325e-001
  2.9394766e-001
  2.5242077e-001
  2.1965663e-001
  2.0034803e-001
  1.7185452e-001
  1.2141578e-001
  6.9447012e-002
  4.1611557e-002
  3.3737173e-002
  2.3642942e-002
  8.5305610e-003
  6.8768456e-003
  2.3147328e-002
  3.5328390e-002
  2.6374297e-002
  9.4383308e-003
  5.4813258e-003
  1.0755189e-002
  8.1145016e-003
  7.0669302e-005
  4.6083370e-003
  2.0305020e-002
  2.2004345e-002
 -7.6708993e-005
 -1.8884101e-002
 -6.0033487e-003
  2.5969165e-002
  3.8231094e-002
  1.8219521e-002
 -6.4282390e-003
 -8.3045905e-003
  5.3776830e-003
  1.1139728e-002
  3.7984846e-003
 -3.3812055e-003
 -3.9682910e-003
 -5.4798232e-003
 -1.0520760e-002
 -9.4134327e-003
  3.1584526e-003
  1.4977924e-002
  1.0331761e-002
 -7.2893185e-003
 -1.6910162e-002
 -6.2992392e-003
  1.1222343e-002
  1.2993434e-002
 -3.8077040e-003
 -1.8928702e-002
 -1.5454074e-002
  2.1859599e-004
  9.5626598e-003
  6.7207613e-003
  1.2886335e-003
 -1.7775979e-003
 -1.0632795e-002
 -2.9356420e-002
 -4.4203017e-002
 -3.7972010e-002
 -1.3730944e-002
  7.3287775e-003
  1.1795605e-002
  5.5181198e-003
 -1.8999299e-003
 -1.0754678e-002
 -2.2337822e-002
 -2.8755478e-002
 -2.2434510e-002
 -9.8531315e-003
 -5.0693651e-003
 -1.0293684e-002
 -1.3777346e-002
 -9.1346470e-003
 -6.9372598e-003
 -1.8970884e-002
 -3.6979090e-002
 -4.0579024e-002
 -2.2799920e-002
  3.1521170e-003
  1.5980576e-002
  1.6126765e-002
  2.0765176e-002
  2.9991632e-002
  3.7748758e-002
  4.2191658e-002
  4.3175473e-002
  4.0789529e-002
  3.4698966e-002
  3.2514202e-002
  3.9924173e-002
  4.2526489e-002
  1.9241263e-002
 -2.2687900e-002
 -5.0108154e-002
 -4.8398163e-002
 -3.9806549e-002
 -4.6477785e-002
 -5.9817889e-002
 -6.4858786e-002
 -6.7128246e-002
 -6.9967569e-002
 -6.0405738e-002
 -5.4091345e-002
 -1.0838320e-001
 -2.1386284e-001
 -2.0229648e-001
  1.0935184e-001
  6.3712858e-001
  1.0019489e+000
  8.9135347e-001
  4.0830280e-001
 -4.0451797e-002
 -1.8195590e-001
 -9.7344239e-002
 -1.3578676e-002
 -1.4734359e-002
 -3.2423804e-002
 -1.9553946e-002
 -8.6488802e-003
 -2.0975466e-002
 -2.4901592e-002
 -3.7058337e-003
  8.1206593e-003
 -1.3546762e-002
 -3.8358730e-002
 -3.0615676e-002
 -3.3836765e-003
  1.0726388e-002
  1.4704384e-002
  3.3157439e-002
  6.2119259e-002
  7.3666322e-002
  6.7174561e-002
  7.6450837e-002
  1.1792725e-001
  1.6909794e-001
  1.9716867e-001
  2.0188065e-001
  2.1340215e-001
  2.3960878e-001
  2.6424800e-001
  2.7308316e-001
  2.6488340e-001
  2.5354578e-001
  2.4992740e-001
  2.5066026e-001
  2.4426534e-001
  2.2193197e-001
  1.8420302e-001
  1.3947282e-001
  9.6612615e-002
  5.9298051e-002
  2.6769091e-002
 -7.9739929e-004
 -1.9884269e-002
 -2.8517832e-002
 -3.1468622e-002
 -3.5075111e-002
 -3.9596397e-002
 -4.1991154e-002
 -4.2775304e-002
 -4.4009606e-002
 -4.2355035e-002
 -3.2196056e-002
 -1.9340566e-002
 -2.0163780e-002
 -3.8946988e-002
 -5.5452920e-002
 -4.6902765e-002
 -1.9070097e-002
 -1.5324913e-003
 -1.1726206e-002
 -3.4901121e-002
 -4.5249203e-002
 -3.6063885e-002
 -2.0533476e-002
 -1.1805498e-002
 -1.3907975e-002
 -2.5018838e-002
 -3.8448119e-002
 -4.3069598e-002
 -3.4449900e-002
 -2.5074455e-002
 -3.0893373e-002
 -4.6746925e-002
 -4.7895367e-002
 -2.3686658e-002
  3.8053478e-003
  5.2883750e-003
 -2.0301939e-002
 -4.7186553e-002
 -5.5562960e-002
 -5.0026423e-002
 -4.4790768e-002
 -4.3922946e-002
 -4.2099296e-002
 -3.5861428e-002
 -2.6634922e-002
 -1.8127524e-002
 -1.4285277e-002
 -1.7276835e-002
 -2.4252796e-002
 -2.7434893e-002
 -2.3712279e-002
 -2.0834046e-002
 -2.6700488e-002
 -3.7340060e-002
 -4.2650446e-002
 -3.9413246e-002
 -3.1656018e-002
 -2.3140973e-002
 -1.4714082e-002
 -5.1696862e-003
  5.3884563e-004
  3.9780653e-003
  1.4031640e-002
  2.3140304e-002
  2.3783368e-002
  2.2005264e-002
  2.7330495e-002
  3.9885260e-002
  4.6621176e-002
  4.1730238e-002
  3.3818167e-002
  2.6702284e-002
  1.1672625e-002
 -1.2350362e-002
 -2.7931657e-002
 -2.2217521e-002
 -7.3976949e-003
 -2.9086565e-003
 -1.0006775e-002
 -1.8760816e-002
 -2.6787444e-002
 -3.3601743e-002
 -3.6690650e-002
 -5.5128039e-002
 -1.2019359e-001
 -1.8954399e-001
 -1.0644094e-001
  2.4936556e-001
  7.4208028e-001
  1.0138152e+000
  8.2867181e-001
  3.4218679e-001
 -5.6799851e-002
 -1.5123833e-001
 -5.4048640e-002
  2.0031175e-002
  1.2666148e-002
  2.8642056e-005
  1.9719449e-002
  3.1130183e-002
  1.5717728e-002
  1.1435128e-002
  3.5302661e-002
  4.8389858e-002
  2.7028328e-002
  9.2511423e-003
  3.3565187e-002
  7.5319554e-002
  8.5659258e-002
  6.7527795e-002
  6.6073765e-002
  9.6923334e-002
  1.2902384e-001
  1.4119236e-001
  1.5363317e-001
  1.8685826e-001
  2.3003134e-001
  2.5595342e-001
  2.5923272e-001
  2.6272335e-001
  2.7279197e-001
  2.7996578e-001
  2.8485563e-001
  2.9396508e-001
  3.0563978e-001
  3.0407641e-001
  2.7945486e-001
  2.4464047e-001
  2.1706530e-001
  1.9189964e-001
  1.5054949e-001
  9.3912603e-002
  4.8271830e-002
  3.2220645e-002
  3.2546078e-002
  2.4565870e-002
  5.7146563e-003
 -7.5872885e-003
 -9.3530713e-003
 -9.8277792e-003
 -1.3542386e-002
 -1.2385347e-002
 -3.3419353e-003
  3.0438619e-003
 -3.3756179e-004
 -3.4541890e-003
  4.7236467e-003
  1.4331691e-002
  8.0716040e-003
 -7.4113211e-003
 -6.3789950e-003
  1.8128419e-002
  4.0325995e-002
  3.5933258e-002
  1.5092387e-002
  5.0330659e-003
  9.6978375e-003
  9.3360789e-003
 -3.8163721e-003
 -1.2319120e-002
 -3.1130978e-003
  8.9227717e-003
  2.5219284e-003
 -1.5518616e-002
 -1.6406701e-002
  8.3276699e-003
  2.9668081e-002
  1.7121981e-002
 -1.9356842e-002
 -3.9499154e-002
 -2.1672976e-002
  1.2182932e-002
  2.4238867e-002
  3.6099434e-003
 -2.6394385e-002
 -3.9317313e-002
 -3.0705698e-002
 -1.2370830e-002
  4.7102013e-003
  1.4758567e-002
  1.4198568e-002
  4.4139091e-003
 -4.3159703e-003
 -1.0078051e-003
  1.0130654e-002
  1.2100231e-002
 -1.8974847e-003
 -1.7336748e-002
 -1.6525301e-002
 -2.0964310e-003
  7.9321489e-003
  5.1649686e-003
  2.3107414e-003
  1.8780012e-002
  4.7581769e-002
  6.4821627e-002
  6.2018925e-002
  4.9080227e-002
  5.0292881e-002
  7.1487391e-002
  8.6488791e-002
  7.3204916e-002
  4.3084435e-002
  3.0428142e-002
  4.5546798e-002
  5.7421762e-002
  3.7985393e-002
  3.9845549e-003
 -7.5541051e-003
  7.3325532e-003
  1.9419849e-002
  1.5410413e-002
  1.0697145e-002
  1.0209721e-002
 -2.4976591e-003
 -2.5708969e-002
 -3.5604705e-002
 -4.3150190e-002
 -9.3716837e-002
 -1.5238190e-001
 -4.9500115e-002
  3.4082290e-001
  8.5993080e-001
  1.1236523e+000
  9.0257118e-001
  3.8395300e-001
 -2.5592036e-002
 -1.1779779e-001
 -1.9274624e-002
  5.1009407e-002
  3.4700809e-002
  1.0350009e-002
  2.4188904e-002
  4.1412701e-002
  3.2905794e-002
  2.0526808e-002
  2.8260074e-002
  4.5175152e-002
  5.3919349e-002
  5.8654177e-002
  6.7759890e-002
  7.4939967e-002
  7.4160672e-002
  7.5782486e-002
  9.0993999e-002
  1.1440923e-001
  1.3577446e-001
  1.5811257e-001
  1.8864490e-001
  2.1877639e-001
  2.3997326e-001
  2.5687193e-001
  2.7933549e-001
  3.1100240e-001
  3.3309994e-001
  3.3393897e-001
  3.2801154e-001
  3.2894709e-001
  3.3491533e-001
  3.3282804e-001
  3.1274979e-001
  2.7754112e-001
  2.3760308e-001
  2.0092297e-001
  1.7056705e-001
  1.4660696e-001
  1.2659377e-001
  1.0642822e-001
  8.5365995e-002
  6.7598785e-002
  5.5255128e-002
  4.2510454e-002
  2.4072474e-002
  9.2799159e-003
  1.4942562e-002
  3.8605038e-002
  5.2099231e-002
  3.4925182e-002
  6.6443559e-003
  7.6463589e-003
  4.7210317e-002
  8.7958453e-002
  9.0451310e-002
  5.8192524e-002
  2.6086592e-002
  1.7412590e-002
  2.7029532e-002
  4.0691930e-002
  5.1675085e-002
  5.7711523e-002
  5.5717796e-002
  4.8632798e-002
  4.6220583e-002
  5.1655227e-002
  5.5239388e-002
  4.6777778e-002
  2.7895372e-002
  7.9877527e-003
 -5.4851542e-003
 -8.8760195e-003
 -3.7365541e-004
  1.6328853e-002
  3.0759385e-002
  3.6101601e-002
  3.7312266e-002
  4.1145745e-002
  4.3969781e-002
  3.9111582e-002
  3.1456469e-002
  3.2610191e-002
  4.2380867e-002
  4.5693499e-002
  3.2970751e-002
  1.4801272e-002
  7.0768858e-003
  1.1888101e-002
  2.1649168e-002
  3.0552067e-002
  3.5320203e-002
  3.1265889e-002
  1.8432427e-002
  9.9875839e-003
  1.9902750e-002
  4.2297122e-002
  5.4578254e-002
  4.4355904e-002
  2.3850219e-002
  1.2309617e-002
  1.5137122e-002
  2.5649846e-002
  3.8787170e-002
  5.7909589e-002
  7.6816898e-002
  8.3940920e-002
  8.3311133e-002
  8.3256899e-002
  8.8246143e-002
  8.8929737e-002
  7.1820218e-002
  4.7266128e-002
  4.2424101e-002
  6.7824051e-002
  9.6610820e-002
  9.0920634e-002
  4.8130007e-002
  4.7381507e-003
 -8.7225805e-003
 -4.3154050e-004
  5.8256320e-003
  9.0580028e-003
  2.2024281e-002
  3.5204747e-002
  2.3220395e-002
 -1.3448221e-002
 -4.8816471e-002
 -7.6871473e-002
 -1.0669738e-001
 -8.5342292e-002
  1.0903492e-001
  5.1143308e-001
  9.2713753e-001
  1.0487275e+000
  7.6489127e-001
  2.9693364e-001
 -2.5683628e-002
 -8.4422355e-002
 -1.2885586e-002
  2.9029439e-002
  2.2514508e-002
  2.7415154e-002
  5.4218445e-002
  6.2702722e-002
  4.4061083e-002
  3.3366993e-002
  4.6837035e-002
  6.0170933e-002
  5.5660691e-002
  4.9813400e-002
  6.1170404e-002
  8.0554040e-002
  9.0054614e-002
  9.2096454e-002
  1.0039799e-001
  1.1793317e-001
  1.3874190e-001
  1.6228268e-001
  1.9264310e-001
  2.2191365e-001
  2.4280924e-001
  2.6249865e-001
  2.9067285e-001
  3.2691773e-001
  3.4960007e-001
  3.4681229e-001
  3.3618812e-001
  3.3471872e-001
  3.3861714e-001
  3.3156498e-001
  3.0620995e-001
  2.6940752e-001
  2.2844840e-001
  1.8375130e-001
  1.3797827e-001
  1.0162160e-001
  8.2016666e-002
  7.2853281e-002
  6.2430886e-002
  4.8513210e-002
  3.8930168e-002
  3.9335571e-002
  4.6586957e-002
  5.3163754e-002
  5.2091043e-002
  3.9202005e-002
  1.8513939e-002
  4.7449801e-003
  1.1466625e-002
  3.4222257e-002
  5.2694994e-002
  5.3098188e-002
  4.2953463e-002
  3.6720569e-002
  3.5709104e-002
  3.3633049e-002
  3.2950645e-002
  4.2081138e-002
  5.6483817e-002
  5.8860519e-002
  4.2787145e-002
  2.5501780e-002
  2.6418718e-002
  4.0319852e-002
  4.4319223e-002
  2.8697844e-002
  8.9192483e-003
  2.8881606e-003
  8.9972471e-003
  1.4000497e-002
  1.4177312e-002
  1.6711220e-002
  2.3871760e-002
  2.8346971e-002
  2.7120618e-002
  3.0474499e-002
  4.6876511e-002
  6.5571152e-002
  6.7129368e-002
  4.8760304e-002
  2.7918906e-002
  1.8462009e-002
  1.5099216e-002
  8.5312861e-003
  3.8849439e-003
  1.2108712e-002
  3.0090313e-002
  4.0832018e-002
  3.5501589e-002
  2.5320355e-002
  2.5382837e-002
  3.5762076e-002
  4.3686053e-002
  4.0094268e-002
  2.9925131e-002
  2.5533400e-002
  3.0575994e-002
  3.3578432e-002
  2.4681548e-002
  1.3484922e-002
  1.7436567e-002
  4.4336864e-002
  7.5642327e-002
  8.2362969e-002
  7.0740109e-002
  6.7626661e-002
  7.9131381e-002
  8.3896259e-002
  6.8396027e-002
  5.6467526e-002
  7.2955298e-002
  9.9576542e-002
  9.6893195e-002
  6.1102038e-002
  2.7203819e-002
  1.6852464e-002
  1.7507356e-002
  1.8194628e-002
  2.7424843e-002
  4.1114212e-002
  3.3568456e-002
  6.0700521e-003
  1.1743321e-003
  2.6739921e-002
  9.7523071e-003
 -9.5119201e-002
 -1.6709779e-001
  1.6540166e-003
  4.3718858e-001
  8.6995172e-001
  9.7422078e-001
  7.0012174e-001
  3.0049112e-001
  4.3718220e-002
 -1.9950836e-002
 -3.6836652e-003
  5.3811451e-003
  1.0766546e-002
  3.1075152e-002
  4.8936615e-002
  4.7785111e-002
  4.3525344e-002
  5.6230749e-002
  7.8196653e-002
  8.7719123e-002
  7.9880729e-002
  6.9190221e-002
  6.8083511e-002
  7.7192043e-002
  9.2545674e-002
  1.0881359e-001
  1.1962026e-001
  1.2286042e-001
  1.2591455e-001
  1.3910692e-001
  1.6589704e-001
  2.0566010e-001
  2.5085499e-001
  2.9185947e-001
  3.2196066e-001
  3.3345007e-001
  3.3284795e-001
  3.3104943e-001
  3.3043850e-001
  3.3392409e-001
  3.4191023e-001
  3.4328231e-001
  3.1911560e-001
  2.6866893e-001
  2.2136800e-001
  2.0497229e-001
  2.0630799e-001
  1.8513331e-001
  1.2969196e-001
  7.4285963e-002
  5.2453769e-002
  5.4707702e-002
  5.0161287e-002
  3.3751254e-002
  2.5270363e-002
  2.9860020e-002
  3.0155587e-002
  1.9269013e-002
  1.4303346e-002
  2.6315694e-002
  3.9252811e-002
  3.6122335e-002
  2.7002012e-002
  3.2079053e-002
  4.9002999e-002
  5.8211132e-002
  5.5821215e-002
  5.6933305e-002
  6.6024429e-002
  6.6738354e-002
  4.8786042e-002
  2.5081232e-002
  1.3411279e-002
  1.3786333e-002
  1.6908347e-002
  2.2374514e-002
  3.2333100e-002
  3.6820780e-002
  2.3215388e-002
 -1.6601774e-003
 -1.5719265e-002
 -9.5075559e-003
  2.6398398e-003
  4.7044951e-003
  2.5894519e-004
  3.0157401e-003
  1.3888778e-002
  2.0538880e-002
  1.6697322e-002
  1.1305990e-002
  1.5062151e-002
  2.4923789e-002
  2.7899095e-002
  1.7168955e-002
  1.9397994e-005
 -9.8475660e-003
 -5.7967409e-003
  5.9261409e-003
  1.3721113e-002
  1.5235742e-002
  2.0419625e-002
  3.8322790e-002
  6.9055412e-002
  9.4967379e-002
  9.6490209e-002
  7.7022899e-002
  5.2139862e-002
  4.0290784e-002
  4.6791244e-002
  5.7979909e-002
  6.2296935e-002
  6.0539447e-002
  5.8231212e-002
  5.3807507e-002
  4.1210505e-002
  2.1962808e-002
  6.5989654e-003
  1.7338256e-003
  2.3707620e-003
  1.4758995e-003
  1.0288764e-004
  1.5120889e-003
  3.9542129e-003
  6.1732469e-003
  8.4873763e-003
 -3.7606270e-003
 -5.7643919e-002
 -1.3725164e-001
 -1.3615937e-001
  7.5291281e-002
  4.8488613e-001
  8.6557608e-001
  9.3967421e-001
  6.4568277e-001
  2.1058684e-001
 -6.9702244e-002
 -9.8455912e-002
 -6.6974286e-003
  4.1999970e-002
  1.5873083e-002
 -1.3806953e-002
  1.3078968e-003
  3.7828209e-002
  5.3791833e-002
  4.1535858e-002
  2.3557297e-002
  2.1239983e-002
  3.7622507e-002
  5.9009287e-002
  6.7348207e-002
  5.9201532e-002
  5.3651385e-002
  7.1539232e-002
  1.0522916e-001
  1.2520016e-001
  1.2097030e-001
  1.2066169e-001
  1.5677690e-001
  2.1748245e-001
  2.6342191e-001
  2.7669310e-001
  2.7641756e-001
  2.9377932e-001
  3.2243674e-001
  3.3088102e-001
  3.1084516e-001
  2.8491713e-001
  2.8108071e-001
  2.9826555e-001
  3.0387604e-001
  2.6914321e-001
  2.0127548e-001
  1.3608667e-001
  1.0120467e-001
  9.1076790e-002
  7.8926301e-002
  5.0490706e-002
  1.9254509e-002
  5.8017365e-003
  1.0496905e-002
  1.6036974e-002
  1.1125452e-002
  4.4452706e-004
 -7.0003847e-003
 -1.0577147e-002
 -1.4037887e-002
 -1.5191887e-002
 -8.9151411e-003
  2.6491947e-003
  1.2130529e-002
  1.7762001e-002
  2.3001334e-002
  2.7435317e-002
  2.4961817e-002
  1.4977806e-002
  7.6356574e-003
  1.1209882e-002
  1.9994305e-002
  2.1033453e-002
  1.0892853e-002
  3.6280204e-004
 -7.6422183e-005
  6.0235426e-003
  8.4588655e-003
  5.5286245e-003
  7.2078354e-003
  2.3485328e-002
  5.1548811e-002
  7.5888491e-002
  8.2182165e-002
  7.1426450e-002
  5.9959587e-002
  6.5772285e-002
  9.1218494e-002
  1.2091814e-001
  1.3901381e-001
  1.4716093e-001
  1.6361451e-001
  2.0259467e-001
  2.5716423e-001
  3.0496119e-001
  3.2757486e-001
  3.2471946e-001
  3.1286458e-001
  3.1120682e-001
  3.2516781e-001
  3.4002403e-001
  3.3270028e-001
  2.9289010e-001
  2.3374756e-001
  1.8019047e-001
  1.4598787e-001
  1.2419297e-001
  1.0031828e-001
  6.9127666e-002
  3.6679585e-002
  1.1116347e-002
 -3.6921332e-003
 -7.8831251e-003
 -3.4101452e-003
  7.1117980e-003
  1.8806669e-002
  2.3684395e-002
  1.5567698e-002
 -2.8946095e-003
 -1.6927895e-002
 -9.7791221e-003
  1.7215856e-002
  4.0764917e-002
  4.1091952e-002
  2.6729316e-002
  2.3065470e-002
  3.7905946e-002
  5.0374118e-002
  4.0353366e-002
  1.6998553e-002
  6.7484418e-003
  1.7402533e-002
  2.9272025e-002
  2.2254302e-002
  2.0756265e-003
 -7.5676488e-003
  5.0616772e-003
  2.5912109e-002
  3.1105323e-002
  1.4404260e-002
 -3.8947555e-003
  1.2415601e-003
  2.8024330e-002
  4.6266304e-002
  3.1972949e-002
 -2.1786571e-003
 -2.0217555e-002
 -4.8767084e-003
  2.5127906e-002
  4.2366233e-002
  4.1122937e-002
  3.3914998e-002
  2.7448413e-002
  1.6494193e-002
  1.6538572e-003
 -3.0194898e-003
  1.0777901e-002
  2.8403983e-002
  2.8049795e-002
  9.9202668e-003
 -1.7801380e-003
  1.0883076e-002
  3.3333617e-002
  3.7150416e-002
  2.1621200e-002
  1.2899027e-002
  3.3568796e-002
  6.8927658e-002
  7.9189624e-002
  6.2160984e-002
  5.2275708e-002
  6.8712003e-002
  9.0207566e-002
  8.8006619e-002
  7.1119243e-002
  6.4417370e-002
  6.3313553e-002
  4.5262648e-002
  1.6651604e-002
  8.9031398e-003
  2.2779773e-002
  2.0041268e-002
 -1.1689061e-002
 -3.1366494e-002
 -9.0889034e-003
  2.3659728e-002
  2.6225394e-002
  1.1312095e-002
 -1.0169338e-004
 -4.4881704e-002
 -1.4257294e-001
 -1.6745789e-001
  7.2335110e-002
  5.6205403e-001
  9.8372881e-001
  1.0055688e+000
  6.3962008e-001
  2.1485905e-001
  5.7434077e-003
 -6.7894856e-003
  7.5032464e-003
 -1.6767183e-002
 -1.7557371e-002
  3.6214211e-002
  8.4047731e-002
  7.3436064e-002
  3.2161909e-002
  1.3620584e-002
  2.3943991e-002
  3.7426665e-002
  4.6449484e-002
  5.8681210e-002
  6.7257908e-002
  5.9668831e-002
  4.7270893e-002
  5.5573669e-002
  8.7507212e-002
  1.1895660e-001
  1.3580713e-001
  1.5204227e-001
  1.8272976e-001
  2.2408077e-001
  2.5780820e-001
  2.7748212e-001
  2.9515711e-001
  3.1212230e-001
  3.2374233e-001
  3.2903648e-001
  3.3034964e-001
  3.3440671e-001
  3.4102447e-001
  3.3968912e-001
  3.1762483e-001
  2.7367106e-001
  2.2213028e-001
  1.7944483e-001
  1.4991736e-001
  1.2457975e-001
  9.3320912e-002
  5.8227951e-002
  3.1347307e-002
  2.1188352e-002
  2.5315222e-002
  3.3705699e-002
  3.5986495e-002
  2.7619749e-002
  1.1885628e-002
 -2.0940850e-003
 -5.7400556e-003
  1.5955606e-003
  1.2730029e-002
  2.1152726e-002
  2.5965324e-002
  2.7530797e-002
  2.5109080e-002
  2.1743543e-002
  2.4766446e-002
  3.4386243e-002
  3.8419845e-002
  2.6531505e-002
  7.7051668e-003
  3.0305025e-003
  1.9067311e-002
  3.7539204e-002
  3.8362343e-002
  2.2932452e-002
  8.0535282e-003
  4.5995839e-003
  1.0110863e-002
  1.6952260e-002
  1.8266330e-002
  9.8103946e-003
 -5.3272638e-003
 -1.3885809e-002
 -6.5540745e-003
  5.5623148e-003
  1.7175486e-003
 -1.9431005e-002
 -3.3271166e-002
 -1.9901021e-002
  7.3769466e-003
  1.8208508e-002
  4.7084019e-003
 -9.4696962e-003
 -2.7040509e-004
  2.6992367e-002
  4.5056529e-002
  3.6614853e-002
  1.0846198e-002
 -1.1263795e-002
 -1.8444526e-002
 -1.4265582e-002
 -8.2090574e-003
 -5.3884062e-003
 -4.7425695e-003
 -2.8013151e-003
  3.9103300e-003
  1.6856237e-002
  3.0682800e-002
  3.3392503e-002
  1.7493209e-002
 -9.2368083e-003
 -2.7558736e-002
 -2.4843040e-002
 -6.7685295e-003
  1.1490193e-002
  1.9520288e-002
  1.4733171e-002
 -3.5926869e-004
 -1.3250578e-002
 -5.4891580e-003
  2.2092575e-002
  4.9585709e-002
  5.4923917e-002
  3.7472903e-002
  2.9476665e-002
  4.9147398e-002
  7.6491170e-002
  8.3428392e-002
  6.8408689e-002
  5.5781290e-002
  5.6710889e-002
  5.5170176e-002
  3.8100494e-002
  1.6904828e-002
  6.1415043e-003
 -7.2362036e-004
 -1.4259009e-002
 -2.1345540e-002
 -3.6038478e-003
  2.2714775e-002
  1.9803344e-002
 -1.1272261e-002
 -2.4364615e-002
 -1.0498137e-002
 -3.7818579e-002
 -1.4470621e-001
 -2.1346329e-001
 -4.2450430e-002
  4.0433306e-001
  8.7469276e-001
  1.0333012e+000
  7.8753773e-001
  3.5979298e-001
  4.2105219e-002
 -6.0983927e-002
 -3.8225008e-002
 -1.7872189e-003
  1.4410621e-002
  1.8550824e-002
  1.0126675e-002
 -7.9555557e-003
 -1.3766435e-002
  4.8849155e-003
  2.7125888e-002
  2.9231099e-002
  2.1542420e-002
  3.1470373e-002
  5.9237510e-002
  7.6718673e-002
  6.9316836e-002
  5.4444193e-002
  5.4616429e-002
  6.9818506e-002
  8.8458698e-002
  1.1034474e-001
  1.4318776e-001
  1.8553890e-001
  2.1870041e-001
  2.3513223e-001
  2.5164534e-001
  2.7835095e-001
  3.1039489e-001
  3.3132405e-001
  3.3182201e-001
  3.2388024e-001
  3.1841546e-001
  3.1127431e-001
  2.9305709e-001
  2.6349476e-001
  2.2982018e-001
  1.9445286e-001
  1.5451802e-001
  1.1304362e-001
  7.9038256e-002
  5.5733999e-002
  3.7490712e-002
  2.0705404e-002
  9.5232736e-003
  5.4775854e-003
  3.2821232e-004
 -1.1428227e-002
 -1.9118761e-002
 -8.1840691e-003
  1.4836055e-002
  2.4681241e-002
  9.2127473e-003
 -1.2688823e-002
 -1.4756785e-002
  3.7164024e-003
  2.0332641e-002
  2.0504178e-002
  1.2489791e-002
  9.2433572e-003
  9.4034568e-003
  4.1964981e-003
 -4.1423513e-003
 -3.4808483e-003
  1.0444046e-002
  2.4387700e-002
  2.1542420e-002
  1.5439636e-003
 -1.8433197e-002
 -2.2098365e-002
 -1.0802576e-002
 -1.2061227e-003
 -7.4991043e-003
 -2.6189955e-002
 -4.0378864e-002
 -3.8118860e-002
 -2.4223521e-002
 -1.2930178e-002
 -1.2259642e-002
 -1.8696665e-002
 -2.5287186e-002
 -2.9200397e-002
 -3.0022925e-002
 -2.6157393e-002
 -1.7226854e-002
 -9.0814194e-003
 -1.2127127e-002
 -2.9304895e-002
 -5.0203650e-002
 -6.0324574e-002
 -5.3386007e-002
 -3.6159754e-002
 -2.2420285e-002
 -2.2458190e-002
 -3.5655720e-002
 -4.9770158e-002
 -5.0315569e-002
 -3.6243175e-002
 -2.4168253e-002
 -2.6458552e-002
 -3.0804885e-002
 -1.9578510e-002
  8.4594236e-003
  3.1725903e-002
  2.8689918e-002
  1.7950677e-002
  2.7790883e-002
  4.9307091e-002
  5.0394581e-002
  2.7783244e-002
  2.2829427e-002
  5.8489574e-002
  9.1644835e-002
  6.4244129e-002
 -1.3304873e-002
 -7.0726126e-002
 -6.9974232e-002
 -4.4871197e-002
 -3.7615319e-002
 -4.2772120e-002
 -3.9166348e-002
 -3.3987477e-002
 -3.7843515e-002
 -3.4907604e-002
 -2.6937524e-002
 -6.7784827e-002
 -1.7077386e-001
 -1.9784517e-001
  3.9848532e-002
  5.1525534e-001
  9.1011443e-001
  9.0770484e-001
  5.3209741e-001
  1.1011592e-001
 -8.9183074e-002
 -8.3503023e-002
 -4.2584584e-002
 -4.2616268e-002
 -3.4621880e-002
  1.3563214e-002
  5.4969577e-002
  4.5958406e-002
  1.0384601e-002
 -7.5824125e-003
 -4.0997511e-003
  3.7122646e-004
  2.7695782e-003
  1.3855954e-002
  2.9884751e-002
  3.6968053e-002
  3.7190458e-002
  4.5524575e-002
  6.4908866e-002
  8.3849117e-002
  1.0026443e-001
  1.2596767e-001
  1.6300396e-001
  1.9845890e-001
  2.1751834e-001
  2.2533305e-001
  2.4323869e-001
  2.7219488e-001
  2.9834649e-001
  3.1021509e-001
  3.0425880e-001
  2.8954846e-001
  2.7546961e-001
  2.6336211e-001
  2.4843217e-001
  2.2598701e-001
  1.9468499e-001
  1.5546077e-001
  1.1260771e-001
  7.3332091e-002
  4.2510878e-002
  1.8871241e-002
 -2.8047540e-003
 -2.3844948e-002
 -3.8698475e-002
 -4.1365594e-002
 -3.3732083e-002
 -2.5420327e-002
 -2.4529343e-002
 -3.0311299e-002
 -3.7365551e-002
 -4.1763839e-002
 -4.0156104e-002
 -2.8272263e-002
 -6.7424354e-003
  1.2375698e-002
  1.2709489e-002
 -7.1447639e-003
 -2.7128798e-002
 -2.8334956e-002
 -1.6394658e-002
 -1.3539583e-002
 -2.7530828e-002
 -4.0444783e-002
 -3.4537003e-002
 -1.8403980e-002
 -1.3389695e-002
 -2.2296885e-002
 -2.7559060e-002
 -2.0999811e-002
 -1.8196488e-002
 -3.2425379e-002
 -4.8675568e-002
 -4.0619875e-002
 -9.5862812e-003
  1.2260663e-002
  1.0803543e-003
 -2.8910951e-002
 -4.5142057e-002
 -3.6917893e-002
 -2.2828846e-002
 -2.3009591e-002
 -3.6722035e-002
 -4.8602006e-002
 -4.8362687e-002
 -3.8192892e-002
 -2.5284749e-002
 -1.6073595e-002
 -1.5973893e-002
 -2.6594037e-002
 -4.2822747e-002
 -5.2236132e-002
 -4.0662584e-002
 -1.2289819e-002
  1.7102869e-002
  3.3405007e-002
  2.6446648e-002
  9.7868087e-003
  4.4212038e-003
  1.3345233e-002
  2.5962445e-002
  3.2845588e-002
  3.5644197e-002
  3.4000637e-002
  1.7432541e-002
 -1.4023201e-002
 -3.4238773e-002
 -2.2811658e-002
 -1.7088123e-003
 -8.6904218e-003
 -3.9183586e-002
 -5.1070434e-002
 -3.2832189e-002
 -2.3037845e-002
 -4.3418529e-002
 -6.4122619e-002
 -7.3852124e-002
 -1.2306742e-001
 -2.1353151e-001
 -1.8709968e-001
  1.3811107e-001
  6.7882011e-001
  1.0530316e+000
  9.4384689e-001
  4.5193116e-001
 -1.2681662e-002
 -1.6843672e-001
 -9.1494218e-002
 -1.5187847e-002
 -3.2928176e-002
 -7.2120393e-002
 -6.7826774e-002
 -4.3316788e-002
 -3.3033977e-002
 -2.4056140e-002
 -4.6590835e-004
  1.6182538e-002
  6.0160036e-003
 -1.0336649e-002
 -4.6584706e-003
  1.5546382e-002
  2.6105269e-002
  2.9904225e-002
  4.7806089e-002
  7.6485235e-002
  8.9108987e-002
  8.1812402e-002
  8.8217148e-002
  1.3318874e-001
  2.0001714e-001
  2.4601794e-001
  2.5470341e-001
  2.5491027e-001
  2.6880678e-001
  2.9188953e-001
  3.0787154e-001
  3.0583173e-001
  2.9179373e-001
  2.7280818e-001
  2.4703750e-001
  2.1401989e-001
  1.8013561e-001
  1.4781412e-001
  1.1133377e-001
  6.7899851e-002
  2.5894625e-002
 -3.8600363e-003
 -2.0474981e-002
 -2.8739734e-002
 -3.0376077e-002
 -2.9170490e-002
 -3.6759954e-002
 -5.8958383e-002
 -7.9834049e-002
 -7.7154669e-002
 -5.3742555e-002
 -3.7020478e-002
 -4.2660766e-002
 -5.5121857e-002
 -5.2870458e-002
 -3.8991406e-002
 -3.2536647e-002
 -3.7815906e-002
 -4.1161408e-002
 -3.5630805e-002
 -2.9997132e-002
 -2.9354531e-002
 -2.5526193e-002
 -1.4190999e-002
 -8.7541528e-003
 -2.3128237e-002
 -4.8989271e-002
 -6.3124671e-002
 -5.6922181e-002
 -4.5838529e-002
 -4.5324218e-002
 -4.9833138e-002
 -4.3067506e-002
 -2.3732785e-002
 -9.8544062e-003
 -1.6445950e-002
 -3.6647460e-002
 -5.1199063e-002
 -5.2642996e-002
 -5.0920272e-002
 -5.4256017e-002
 -5.6047741e-002
 -4.6506861e-002
 -3.0673554e-002
 -2.4486077e-002
 -3.3752388e-002
 -4.6581839e-002
 -5.0892099e-002
 -5.0090360e-002
 -5.5076887e-002
 -6.6859102e-002
 -7.5142531e-002
 -7.1423120e-002
 -5.6338611e-002
 -3.7346549e-002
 -2.4140189e-002
 -2.4765543e-002
 -3.8894713e-002
 -5.1268557e-002
 -4.4656354e-002
 -2.2185651e-002
 -8.5258865e-004
  3.8477413e-003
 -3.9557780e-003
 -3.3849945e-003
  8.9732457e-003
  2.2193912e-002
  2.5578325e-002
  1.5835320e-002
  3.1386281e-003
 -1.8203592e-004
  8.0183394e-003
  1.5180482e-002
  5.8257450e-003
 -1.8333889e-002
 -3.7325275e-002
 -3.8728139e-002
 -3.4867002e-002
 -4.2404697e-002
 -5.4264315e-002
 -4.9834826e-002
 -2.8637593e-002
 -1.3773145e-002
 -2.3622437e-002
 -6.0460011e-002
 -1.2200097e-001
 -1.8502946e-001
 -1.6298497e-001
  5.9135767e-002
  4.7810783e-001
  8.7820338e-001
  9.6988172e-001
  6.6940951e-001
  2.0259345e-001
 -1.1174911e-001
 -1.5681968e-001
 -6.2315262e-002
  2.4560619e-003
  3.8025329e-004
 -9.7712146e-003
  4.7123231e-003
  2.1243130e-002
  2.0921968e-002
  1.5820230e-002
  1.7719092e-002
  2.0248368e-002
  1.9380663e-002
  2.3721343e-002
  3.5618325e-002
  4.3708181e-002
  4.2631870e-002
  4.3721359e-002
  5.7550621e-002
  8.0786638e-002
  1.0695134e-001
  1.3904204e-001
  1.8037854e-001
  2.1664764e-001
  2.3461811e-001
  2.4016552e-001
  2.4794307e-001
  2.6941081e-001
  2.9590299e-001
  3.1531714e-001
  3.2769323e-001
  3.3210857e-001
  3.2579163e-001
  3.0731084e-001
  2.7678066e-001
  2.3653303e-001
  1.9246341e-001
  1.5279377e-001
  1.2117809e-001
  9.2627560e-002
  6.3113503e-002
  3.9767806e-002
  3.1684336e-002
  3.2783838e-002
  2.4867195e-002
  1.1053439e-003
 -2.2081823e-002
 -2.5728116e-002
 -1.2784585e-002
 -1.4282514e-003
  1.5700058e-003
  7.2436044e-003
  2.3417806e-002
  3.9172860e-002
  3.6980229e-002
  1.6844796e-002
 -1.0363765e-003
 -6.1361261e-004
  1.1431954e-002
  1.6520250e-002
  9.0507331e-003
  4.6572321e-003
  1.8530473e-002
  4.4091341e-002
  5.9022807e-002
  5.0116370e-002
  2.6086910e-002
  6.3850341e-003
  4.6745869e-003
  2.2565796e-002
  4.9548225e-002
  6.5381830e-002
  5.4233283e-002
  2.4622550e-002
  6.0248322e-003
  1.5844546e-002
  3.6654155e-002
  3.7279065e-002
  1.4098830e-002
 -4.1290100e-003
  5.1710378e-003
  3.0921638e-002
  4.6314383e-002
  4.0775162e-002
  2.3859447e-002
  7.6361106e-003
 -1.6295827e-003
  8.7465620e-004
  1.8097168e-002
  4.2984521e-002
  5.9320236e-002
  5.6116372e-002
  3.8444397e-002
  2.0890807e-002
  1.3364750e-002
  1.5533390e-002
  1.9210622e-002
  1.6149070e-002
  9.5145946e-003
  1.2620577e-002
  3.2945887e-002
  6.4735066e-002
  8.5012150e-002
  7.8647620e-002
  6.1537336e-002
  5.3599006e-002
  6.2351011e-002
  7.8475501e-002
  8.5659317e-002
  8.2094917e-002
  7.6981726e-002
  7.5273922e-002
  7.1027846e-002
  5.7858963e-002
  4.0891651e-002
  3.2337388e-002
  3.5152101e-002
  3.6798496e-002
  2.5965201e-002
  8.8173139e-003
  6.8502624e-005
  4.5409642e-003
  1.4975001e-002
  2.1794528e-002
  9.9212120e-003
 -4.1576986e-002
 -1.1594806e-001
 -1.0968110e-001
  1.1028449e-001
  5.3808954e-001
  9.4110416e-001
  1.0229665e+000
  7.1211802e-001
  2.4964230e-001
 -4.6559110e-002
 -7.6254872e-002
  1.7309920e-002
  6.7793263e-002
  5.3212144e-002
  4.3549133e-002
  6.7650803e-002
  8.9304494e-002
  8.2097881e-002
  6.5227372e-002
  6.2945581e-002
  6.9993901e-002
  7.1277299e-002
  7.0461352e-002
  8.0794447e-002
  1.0096525e-001
  1.1599131e-001
  1.1851465e-001
  1.1774256e-001
  1.2813947e-001
  1.5468566e-001
  1.9015623e-001
  2.2441752e-001
  2.5099275e-001
  2.7587527e-001
  3.0414529e-001
  3.2623019e-001
  3.3867333e-001
  3.4778393e-001
  3.6510333e-001
  3.9095475e-001
  4.0287038e-001
  3.8620143e-001
  3.5347449e-001
  3.2205807e-001
  2.8830367e-001
  2.3978480e-001
  1.8501390e-001
  1.4863605e-001
  1.3570247e-001
  1.2161636e-001
  8.8003919e-002
  5.2463263e-002
  4.5106984e-002
  6.4289071e-002
  7.5974568e-002
  5.7859426e-002
  2.6435226e-002
  1.2793628e-002
  2.3634330e-002
  3.9106966e-002
  4.2454883e-002
  3.7547728e-002
  3.7549193e-002
  4.6244865e-002
  5.4844086e-002
  5.4343321e-002
  4.6394310e-002
  4.0345562e-002
  4.2514972e-002
  4.9221835e-002
  5.2165153e-002
  4.8404791e-002
  4.4003493e-002
  4.4335830e-002
  4.5734483e-002
  4.0917396e-002
  3.0776384e-002
  2.4473491e-002
  2.6691605e-002
  3.2494563e-002
  3.6608126e-002
  4.0288834e-002
  4.4416845e-002
  4.2931051e-002
  2.9605848e-002
  1.0744261e-002
  3.4068578e-003
  1.6377249e-002
  3.7314992e-002
  4.6364183e-002
  3.8103350e-002
  2.4652296e-002
  1.9655446e-002
  2.3734116e-002
  2.7673150e-002
  2.5681136e-002
  2.1299794e-002
  2.0970288e-002
  2.5550048e-002
  3.0322345e-002
  3.1004937e-002
  3.0775028e-002
  4.0891786e-002
  6.1799589e-002
  8.3292086e-002
  9.4171005e-002
  8.7383158e-002
  7.9849046e-002
  9.0598953e-002
  1.1035878e-001
  1.1378645e-001
  9.4060783e-002
  7.7883729e-002
  8.7337445e-002
  1.0320881e-001
  9.0415739e-002
  5.0827753e-002
  2.1842138e-002
  2.2007825e-002
  2.9861942e-002
  2.5666706e-002
  1.8842277e-002
  1.8258651e-002
  1.1513789e-002
 -3.8816824e-003
 -6.0882269e-003
 -9.2969476e-004
 -3.9942521e-002
 -1.1496497e-001
 -7.3260467e-002
  2.4206391e-001
  7.3633195e-001
  1.0565922e+000
  9.3335115e-001
  4.8234416e-001
  7.6957161e-002
 -5.1444112e-002
  1.0221855e-002
  6.2280385e-002
  4.5486005e-002
  3.0794874e-002
  5.3210575e-002
  6.7414838e-002
  4.7449746e-002
  3.2080245e-002
  5.3347552e-002
  8.5747486e-002
  9.4974651e-002
  9.1286652e-002
  1.0106943e-001
  1.1545404e-001
  1.0610417e-001
  7.9085848e-002
  7.3538684e-002
  1.0703647e-001
  1.5166802e-001
  1.7461789e-001
  1.8017007e-001
  1.9386826e-001
  2.2853533e-001
  2.6945641e-001
  2.9793482e-001
  3.1586246e-001
  3.2474859e-001
  3.2414528e-001
  3.2034825e-001
  3.2269822e-001
  3.3651891e-001
  3.4850864e-001
  3.3550763e-001
  2.9284716e-001
  2.4231682e-001
  2.0538963e-001
  1.7910380e-001
  1.4761434e-001
  1.0880019e-001
  7.5712523e-002
  5.5914529e-002
  4.3408041e-002
  3.2980983e-002
  3.0682794e-002
  4.2009324e-002
  5.8033303e-002
  6.2089284e-002
  4.7366299e-002
  2.4581712e-002
  1.2423935e-002
  2.0661012e-002
  4.1284782e-002
  5.5055884e-002
  4.9315196e-002
  3.2549389e-002
  2.6409700e-002
  3.9916470e-002
  6.0052163e-002
  6.8837306e-002
  6.3944110e-002
  5.6505499e-002
  5.2594838e-002
  4.7959933e-002
  4.2308896e-002
  4.3694109e-002
  5.4910307e-002
  6.4001648e-002
  5.7687855e-002
  4.1242153e-002
  3.2631521e-002
  3.8394704e-002
  4.5713093e-002
  4.2825899e-002
  3.5904028e-002
  3.7069838e-002
  4.3926201e-002
  4.3797324e-002
  3.6296565e-002
  3.5024126e-002
  4.3600157e-002
  4.5904354e-002
  3.0030859e-002
  1.1147052e-002
  1.5354932e-002
  4.5262788e-002
  7.5142833e-002
  8.1772390e-002
  6.6328317e-002
  4.5205000e-002
  3.1416141e-002
  3.0335440e-002
  4.4639532e-002
  6.9948832e-002
  9.0180977e-002
  8.9536697e-002
  6.9754895e-002
  4.8444906e-002
  3.9516339e-002
  4.0390636e-002
  3.9534297e-002
  3.4393196e-002
  3.5857351e-002
  4.9175181e-002
  7.0534077e-002
  8.7235660e-002
  8.5242965e-002
  7.7581954e-002
  8.6914145e-002
  1.1220368e-001
  1.2783652e-001
  1.1728785e-001
  1.0176793e-001
  1.0718383e-001
  1.1801010e-001
  9.7272904e-002
  4.7672285e-002
  1.5199807e-002
  2.4337089e-002
  4.5614645e-002
  4.6494403e-002
  3.8076336e-002
  4.1435072e-002
  4.4509932e-002
  3.1687477e-002
  2.1791095e-002
  2.5404323e-002
 -4.0242047e-003
 -9.0930578e-002
 -1.1655335e-001
  1.0563502e-001
  5.7079498e-001
  9.8377270e-001
  1.0239411e+000
  6.8598046e-001
  2.7068601e-001
  4.8820205e-002
  2.7381264e-002
  5.6091283e-002
  5.3371775e-002
  4.9589281e-002
  7.1414095e-002
  8.8566349e-002
  7.6587867e-002
  5.8200145e-002
  6.0409548e-002
  7.4377006e-002
  8.0450902e-002
  8.0456583e-002
  8.4559376e-002
  8.9085198e-002
  8.8500875e-002
  9.2841725e-002
  1.1130520e-001
  1.3295197e-001
  1.4333315e-001
  1.5123791e-001
  1.7593809e-001
  2.1338208e-001
  2.4480521e-001
  2.6388295e-001
  2.8513831e-001
  3.1874649e-001
  3.4410155e-001
  3.4673313e-001
  3.4105709e-001
  3.4498261e-001
  3.5701846e-001
  3.5955123e-001
  3.4480146e-001
  3.1992071e-001
  2.8864788e-001
  2.4588173e-001
  1.9395786e-001
  1.4987922e-001
  1.2518848e-001
  1.0901253e-001
  8.4982404e-002
  5.6347600e-002
  3.9835153e-002
  3.9598124e-002
  4.3303104e-002
  4.1989490e-002
  3.8327086e-002
  3.3012622e-002
  1.8708099e-002
 -3.0349418e-003
 -1.2671743e-002
  4.4641877e-003
  3.5432368e-002
  5.2829098e-002
  4.6967444e-002
  3.3059358e-002
  2.8506613e-002
  3.5541975e-002
  4.4267312e-002
  4.4370974e-002
  3.2690045e-002
  1.6822198e-002
  1.1936758e-002
  2.6750952e-002
  4.9521192e-002
  5.8373824e-002
  4.7208092e-002
  3.2449432e-002
  3.0119031e-002
  3.4220888e-002
  2.7735166e-002
  7.9066787e-003
 -9.7042103e-003
 -1.0062768e-002
  6.6828243e-003
  2.7439094e-002
  3.7017065e-002
  2.8938010e-002
  1.1159121e-002
 -3.5635415e-004
  1.3646766e-003
  6.0858311e-003
  2.8851132e-003
 -1.3849652e-003
  7.5465666e-003
  2.7511970e-002
  3.9644828e-002
  3.3130603e-002
  1.8741535e-002
  1.1259006e-002
  1.0614052e-002
  1.0059611e-002
  1.1943382e-002
  2.1350551e-002
  3.0882231e-002
  2.6378301e-002
  7.6347207e-003
 -9.1585401e-003
 -1.1815324e-002
 -4.1043756e-003
  4.4131627e-003
  1.0962893e-002
  1.6149392e-002
  1.6386103e-002
  1.1610793e-002
  1.0829369e-002
  2.1152698e-002
  4.1638046e-002
  5.9034466e-002
  6.6486722e-002
  7.3552020e-002
  8.1452033e-002
  8.7210856e-002
  8.8584527e-002
  8.2405519e-002
  6.9502689e-002
  5.4292234e-002
  4.6296921e-002
  5.0511817e-002
  5.9347286e-002
  6.2443118e-002
  5.9096542e-002
  5.1761677e-002
  3.4725835e-002
  6.1336269e-003
 -1.5239771e-002
 -9.0100388e-003
  1.3548860e-002
  2.0128887e-002
  2.0695957e-003
 -2.2545688e-002
 -5.4737683e-002
 -1.0892417e-001
 -1.2584920e-001
  4.1272007e-002
  4.5513195e-001
  9.2010015e-001
  1.0929990e+000
  8.2722221e-001
  3.4369118e-001
 -1.3781227e-003
 -7.0934936e-002
 -2.7483175e-003
  3.4535357e-002
  2.2689044e-002
  2.3556775e-002
  4.5185153e-002
  5.0499105e-002
  3.9271894e-002
  4.0972852e-002
  5.0193706e-002
  3.5656098e-002
  6.0844726e-003
  7.2204422e-003
  4.6582038e-002
  7.5685108e-002
  6.4495317e-002
  4.7210476e-002
  6.6114541e-002
  1.0824617e-001
  1.3263326e-001
  1.3786810e-001
  1.6070415e-001
  2.0982361e-001
  2.5423802e-001
  2.6800693e-001
  2.6223772e-001
  2.7001046e-001
  2.9351177e-001
  3.1113086e-001
  3.1320214e-001
  3.0372927e-001
  2.9163154e-001
  2.8057308e-001
  2.6789154e-001
  2.4800373e-001
  2.1688875e-001
  1.7634334e-001
  1.3284205e-001
  9.2190972e-002
  5.7120638e-002
  3.0939649e-002
  1.7742711e-002
  1.5260186e-002
  1.3952745e-002
  7.2796766e-003
  2.0066697e-004
  2.7801464e-003
  1.5780817e-002
  2.6655333e-002
  2.2982130e-002
  6.1085156e-003
 -1.0263067e-002
 -1.2358086e-002
  1.5703097e-003
  1.8868861e-002
  2.3588395e-002
  1.4288904e-002
  7.8495937e-003
  1.8609197e-002
  3.6286518e-002
  3.6826764e-002
  1.5057303e-002
 -6.1617268e-003
 -6.7116992e-003
  4.6783246e-003
  6.9837948e-003
 -3.3972523e-004
  3.1509227e-004
  1.3498632e-002
  2.2322559e-002
  1.5048703e-002
  3.8026327e-003
  5.6408283e-003
  1.7313828e-002
  2.1222232e-002
  1.0037927e-002
 -6.6896764e-003
 -1.6454663e-002
 -1.4973736e-002
 -5.0946086e-003
  7.6567397e-003
  1.6734775e-002
  1.8841615e-002
  1.7551138e-002
  1.7195805e-002
  1.5123444e-002
  6.7490796e-003
 -2.3614051e-003
 -2.9739787e-004
  1.3006407e-002
  2.2902481e-002
  1.9322928e-002
  9.6953291e-003
  6.1785715e-003
  8.6718481e-003
  9.2948661e-003
  7.3964010e-003
  9.7310338e-003
  1.6234033e-002
  2.1719386e-002
  3.1743077e-002
  5.1169980e-002
  7.5378147e-002
  8.8172368e-002
  7.2304331e-002
  4.4187995e-002
  3.3008352e-002
  4.1781488e-002
  5.2828401e-002
  5.7878619e-002
  7.0097663e-002
  9.1299289e-002
  9.3699482e-002
  5.9779579e-002
  2.0726005e-002
  1.9428247e-002
  4.4878372e-002
  4.5571927e-002
  9.9153492e-003
 -1.4131929e-002
  4.4367176e-003
  3.2145241e-002
  3.1719887e-002
  1.7637621e-002
  1.4100445e-003
 -5.9624758e-002
 -1.6392742e-001
 -1.4959066e-001
  1.7598372e-001
  7.3624654e-001
  1.1398067e+000
  1.0503253e+000
  5.5907298e-001
  8.3113233e-002
 -8.6343333e-002
 -2.0135968e-002
  5.4338672e-002
  4.9859805e-002
  3.2384227e-002
  4.6011562e-002
  5.4823118e-002
  3.6694700e-002
  2.6672989e-002
  4.4940827e-002
  5.8309039e-002
  4.3686493e-002
  3.2658640e-002
  5.6989529e-002
  9.3220896e-002
  1.0163925e-001
  9.1808195e-002
  1.0405411e-001
  1.3872134e-001
  1.5230575e-001
  1.3134267e-001
  1.2613479e-001
  1.8718578e-001
  3.0205826e-001
  4.0475525e-001
  4.5103704e-001
  4.5985341e-001
  4.6128727e-001
  4.6198710e-001
  4.5073308e-001
  4.1963290e-001
  3.8099163e-001
  3.4705577e-001
  3.1506088e-001
  2.8106599e-001
  2.5214373e-001
  2.3474267e-001
  2.2113196e-001
  1.9948370e-001
  1.7371712e-001
  1.6066534e-001
  1.6679513e-001
  1.7916391e-001
  1.8326529e-001
  1.7798892e-001
  1.6966375e-001
  1.6134029e-001
  1.5329901e-001
  1.4812017e-001
  1.4892121e-001
  1.5448726e-001
  1.6171884e-001
  1.6819200e-001
  1.7127852e-001
  1.6810369e-001
  1.6055664e-001
  1.5697774e-001
  1.6013543e-001
  1.6124618e-001
  1.5271230e-001
  1.4334455e-001
  1.4763021e-001
  1.6187065e-001
  1.6530555e-001
  1.4911073e-001
  1.3161873e-001
  1.3486974e-001
  1.5578504e-001
  1.7152536e-001
  1.6850950e-001
  1.5428795e-001
  1.4391979e-001
  1.4453110e-001
  1.5445228e-001
  1.6721372e-001
  1.7127157e-001
  1.5605838e-001
  1.2715476e-001
  1.0753141e-001
  1.1475861e-001
  1.3995695e-001
  1.5697593e-001
  1.5185915e-001
  1.3561905e-001
  1.2746534e-001
  1.3239164e-001
  1.4051101e-001
  1.4293184e-001
  1.4054053e-001
  1.4104410e-001
  1.5021869e-001
  1.6439482e-001
  1.8164105e-001
  1.9801089e-001
  2.0422751e-001
  2.0301277e-001
  2.0015792e-001
  1.9802414e-001
  1.9519139e-001
  1.9030060e-001
  1.9193417e-001
  2.0406615e-001
  2.1072591e-001
  1.9210263e-001
  1.5532654e-001
  1.3079914e-001
  1.3240188e-001
  1.3907467e-001
  1.2903807e-001
  1.1284582e-001
  1.1047553e-001
  1.1686901e-001
  1.1825199e-001
  1.2231649e-001
  1.3298187e-001
  1.1017029e-001
  2.0981840e-002
 -5.1702645e-002
  7.0737813e-002
  4.5629095e-001
  9.0709500e-001
  1.0990693e+000
  8.9906012e-001
  4.9114265e-001
  1.6900889e-001
  5.8646753e-002
  7.8781303e-002
  1.1112924e-001
  1.2457025e-001
  1.4004920e-001
  1.5598633e-001
  1.5495088e-001
  1.4663367e-001
  1.5873706e-001
  1.9330685e-001
  2.2125983e-001
  2.2073383e-001
  2.0308139e-001
  1.9437588e-001
  2.0400937e-001
  2.2045031e-001
  2.2854717e-001
  2.2542743e-001
  2.2175940e-001
  2.3221059e-001
  2.6340299e-001
  3.0866429e-001
  3.5563715e-001
  3.8938791e-001
  4.0410746e-001
  4.0728073e-001
  4.0786246e-001
  4.1776718e-001
  4.3651279e-001
  4.5027306e-001
  4.5307964e-001
  4.4723605e-001
  4.3419758e-001
  4.1089711e-001
  3.7948020e-001
  3.5298809e-001
  3.3830415e-001
  3.1972779e-001
  2.7635602e-001
  2.1323229e-001
  1.6175896e-001
  1.4556967e-001
  1.5608769e-001
  1.6960259e-001
  1.7570855e-001
  1.7573498e-001
  1.6637434e-001
  1.4505530e-001
  1.2774716e-001
  1.3867026e-001
  1.7662809e-001
  2.0777046e-001
  2.0360825e-001
  1.7476037e-001
  1.5431830e-001
  1.5619459e-001
  1.6469015e-001
  1.6245237e-001
  1.5055958e-001
  1.3963999e-001
  1.3697460e-001
  1.4682436e-001
  1.6945880e-001
  1.9358070e-001
  1.9763756e-001
  1.7253915e-001
  1.3881510e-001
  1.2645646e-001
  1.3962078e-001
  1.5440329e-001
  1.5152348e-001
  1.3668977e-001
  1.2707822e-001
  1.2646139e-001
  1.2438277e-001
  1.1653226e-001
  1.1228643e-001
  1.2037500e-001
  1.3518886e-001
  1.4203862e-001
  1.3397859e-001
  1.1823095e-001
  1.1102214e-001
  1.2765606e-001
  1.6492623e-001
  2.0508495e-001
  2.2137799e-001
  1.9463142e-001
  1.5035802e-001
  1.3624541e-001
  1.6933154e-001
  2.1405487e-001
  2.2042993e-001
  1.8785472e-001
  1.5947625e-001
  1.6050659e-001
  1.6906923e-001
  1.5588589e-001
  1.2694749e-001
  1.0632177e-001
  9.8924741e-002
  9.5437617e-002
  9.5315823e-002
  9.9295596e-002
  9.6375266e-002
  8.5815379e-002
  8.9748352e-002
  1.0417315e-001
  6.7612138e-002
 -4.4960943e-002
 -1.0165249e-001
  1.0539553e-001
  5.8869582e-001
  1.0469776e+000
  1.1262455e+000
  7.8919741e-001
  3.3993480e-001
  8.3004207e-002
  4.9965858e-002
  8.4874628e-002
  9.0612283e-002
  9.4212266e-002
  1.2492489e-001
  1.4714669e-001
  1.2973677e-001
  1.0224079e-001
  1.0491998e-001
  1.2729528e-001
  1.3447102e-001
  1.2421996e-001
  1.2216866e-001
  1.3670317e-001
  1.5023224e-001
  1.5236037e-001
  1.5369380e-001
  1.6444721e-001
  1.8070168e-001
  1.9890802e-001
  2.2616884e-001
  2.6778075e-001
  3.1763469e-001
  3.5537515e-001
  3.6869019e-001
  3.6837204e-001
  3.6729389e-001
  3.7595465e-001
  3.9213850e-001
  4.0089768e-001
  3.9597433e-001
  3.8171386e-001
  3.6533677e-001
  3.5025650e-001
  3.3454427e-001
  3.1059964e-001
  2.6700956e-001
  2.0116937e-001
  1.3221710e-001
  9.0617712e-002
  8.8100914e-002
  1.0464475e-001
  1.1139610e-001
  1.0103980e-001
  8.8286812e-002
  8.6432194e-002
  9.4233197e-002
  1.0307648e-001
  1.0588501e-001
  9.8574567e-002
  8.3408941e-002
  7.1470810e-002
  7.3528205e-002
  8.6424250e-002
  9.6294286e-002
  9.8093777e-002
  1.0033211e-001
  1.0730401e-001
  1.0970773e-001
  1.0125305e-001
  9.2013795e-002
  9.4021038e-002
  1.0040777e-001
  9.4766795e-002
  7.7512522e-002
  6.6734251e-002
  7.0596523e-002
  7.7146336e-002
  7.5171106e-002
  7.0134893e-002
  7.2041470e-002
  7.6502884e-002
  7.2236860e-002
  6.1649535e-002
  5.9377942e-002
  7.0063382e-002
  8.0329948e-002
  7.6300109e-002
  6.1155190e-002
  4.9458390e-002
  5.0467188e-002
  6.0913645e-002
  7.1208430e-002
  7.5195782e-002
  7.3554073e-002
  7.0555274e-002
  6.9758716e-002
  7.2262096e-002
  7.6949433e-002
  8.0667233e-002
  7.8132153e-002
  6.5363125e-002
  4.9274000e-002
  4.7128995e-002
  6.5410137e-002
  9.6496692e-002
  1.2234611e-001
  1.2873207e-001
  1.2708192e-001
  1.2965577e-001
  1.3332335e-001
  1.3134153e-001
  1.2790853e-001
  1.3746699e-001
  1.5558579e-001
  1.5202682e-001
  1.0938815e-001
  5.5954863e-002
  3.6505384e-002
  5.5435726e-002
  7.4173309e-002
  6.6600667e-002
  4.9223806e-002
  4.3997947e-002
  4.2756217e-002
  3.3427600e-002
  3.0142913e-002
  3.7013072e-002
  8.7386337e-003
 -8.3430442e-002
 -1.4087765e-001
  2.1406949e-002
  4.5297403e-001
  9.2677581e-001
  1.1062635e+000
  8.7016904e-001
  4.2511527e-001
  8.3042834e-002
 -2.3505847e-002
  1.5822554e-002
  6.2483754e-002
  6.9533540e-002
  6.3952634e-002
  6.7069197e-002
  7.4491182e-002
  8.3084333e-002
  9.7567462e-002
  1.1395347e-001
  1.1933716e-001
  1.0994527e-001
  9.8239944e-002
  9.8796446e-002
  1.1368487e-001
  1.3436432e-001
  1.5067371e-001
  1.5697708e-001
  1.5494294e-001
  1.5581390e-001
  1.7523291e-001
  2.1815187e-001
  2.7163467e-001
  3.0767983e-001
  3.1312237e-001
  3.0594463e-001
  3.0780356e-001
  3.2847411e-001
  3.5610426e-001
  3.7290231e-001
  3.7899164e-001
  3.7891957e-001
  3.6732224e-001
  3.3662516e-001
  2.9269476e-001
  2.5168824e-001
  2.2134891e-001
  1.9578949e-001
  1.6888099e-001
  1.4178084e-001
  1.1577980e-001
  9.0062873e-002
  7.0614504e-002
  6.8697872e-002
  8.2126579e-002
  8.8638490e-002
  7.1504732e-002
  4.4534597e-002
  3.5828676e-002
  5.1199448e-002
  7.0162709e-002
  7.6864246e-002
  7.8884519e-002
  8.7492999e-002
  9.4779205e-002
  8.7223063e-002
  7.1370257e-002
  6.7352562e-002
  7.9327260e-002
  8.8414052e-002
  7.9181952e-002
  6.1927457e-002
  5.8276075e-002
  7.3570986e-002
  9.1542574e-002
  9.5676373e-002
  8.6177401e-002
  7.3575147e-002
  6.5304958e-002
  6.2324156e-002
  6.3091031e-002
  6.4471028e-002
  6.1777976e-002
  5.3457535e-002
  4.7564106e-002
  5.5881141e-002
  7.6336632e-002
  8.9329351e-002
  7.8734205e-002
  5.3190861e-002
  3.9736563e-002
  5.2132885e-002
  7.4105556e-002
  8.1115530e-002
  6.9835873e-002
  5.6559374e-002
  5.1870299e-002
  4.8426372e-002
  3.7463800e-002
  2.6070657e-002
  2.8837676e-002
  4.7562217e-002
  6.6506230e-002
  6.9682808e-002
  5.8489000e-002
  4.8216600e-002
  4.9793523e-002
  5.8351393e-002
  6.2230396e-002
  5.8559510e-002
  5.4409423e-002
  6.3725872e-002
  8.7219463e-002
  1.0972562e-001
  1.2463780e-001
  1.2858926e-001
  1.1943833e-001
  1.0021177e-001
  8.2877130e-002
  8.7284165e-002
  1.1337796e-001
  1.3067769e-001
  1.1272846e-001
  7.3353925e-002
  4.8096622e-002
  4.4112450e-002
  3.6289164e-002
  1.6580211e-002
  1.3136971e-002
  4.2051115e-002
  7.0691969e-002
  6.1927085e-002
  3.2446866e-002
  2.0477084e-002
  8.2868682e-003
 -5.3366120e-002
 -1.2159851e-001
 -3.5968397e-002
  3.0513828e-001
  7.6213177e-001
  1.0269156e+000
  9.1032908e-001
  5.2242401e-001
  1.4573017e-001
 -3.1804646e-002
 -3.0250208e-002
  2.7392633e-002
  6.1764621e-002
  7.0832903e-002
  7.4429234e-002
  7.6004697e-002
  6.9950532e-002
  5.6995268e-002
  4.5567589e-002
  4.4164520e-002
  5.4970394e-002
  7.2506956e-002
  8.7533531e-002
  9.6315664e-002
  1.0396703e-001
  1.1537710e-001
  1.2741605e-001
  1.3305237e-001
  1.3510177e-001
  1.4775286e-001
  1.8079056e-001
  2.2955419e-001
  2.7406101e-001
  2.9994447e-001
  3.0988579e-001
  3.1285238e-001
  3.2341729e-001
  3.4380876e-001
  3.6325189e-001
  3.7417857e-001
  3.7086440e-001
  3.4905265e-001
  3.0924561e-001
  2.6337630e-001
  2.3022357e-001
  2.1511137e-001
  2.0096475e-001
  1.6872776e-001
  1.2298437e-001
  8.5995276e-002
  6.6472336e-002
  5.1588125e-002
  3.3664455e-002
  2.5446782e-002
  3.7026538e-002
  5.1868268e-002
  4.5147738e-002
  2.0922031e-002
  1.0132393e-002
  2.8239148e-002
  5.3346643e-002
  5.6963146e-002
  4.0690057e-002
  2.8409180e-002
  3.2828731e-002
  4.5487917e-002
  5.6444775e-002
  6.6508685e-002
  7.6839531e-002
  7.9175664e-002
  6.7733295e-002
  5.1882430e-002
  4.7601265e-002
  5.7226089e-002
  6.6093873e-002
  6.0422433e-002
  4.2411279e-002
  2.6007333e-002
  2.2228009e-002
  3.0098478e-002
  3.9337583e-002
  4.0235469e-002
  3.0603729e-002
  1.8019492e-002
  1.2979873e-002
  1.8980376e-002
  2.8535177e-002
  2.9959388e-002
  2.0753696e-002
  1.1746681e-002
  1.3915276e-002
  2.3590757e-002
  2.7817220e-002
  2.2935341e-002
  1.9910791e-002
  2.9531320e-002
  4.5808591e-002
  5.2523005e-002
  5.1427894e-002
  5.5665739e-002
  6.8417508e-002
  8.0673288e-002
  7.6670537e-002
  6.1700685e-002
  5.6326521e-002
  6.6427323e-002
  8.3116326e-002
  9.6408120e-002
  1.0304084e-001
  9.9068909e-002
  7.7962437e-002
  4.3645010e-002
  1.4101294e-002
  2.6398369e-003
  2.4904213e-003
 -8.3763544e-004
 -9.1819778e-003
 -1.3913848e-002
 -1.1747784e-002
 -6.5837342e-003
 -2.6078404e-003
 -1.1420992e-002
 -5.1901683e-002
 -1.0584503e-001
 -7.4555827e-002
  1.5927757e-001
  5.7301918e-001
  9.3569445e-001
  9.7691457e-001
  6.5384419e-001
  2.0977987e-001
 -6.2038309e-002
 -8.4089590e-002
  1.5426594e-003
  4.6396187e-002
  3.9561551e-002
  4.3008354e-002
  6.9032461e-002
  7.6603701e-002
  5.3268125e-002
  3.6160276e-002
  4.9670684e-002
  7.0241596e-002
  6.8718137e-002
  5.4387396e-002
  5.5626925e-002
  7.7465013e-002
  1.0098876e-001
  1.1483245e-001
  1.2523065e-001
  1.3861770e-001
  1.5392624e-001
  1.7428990e-001
  2.0859603e-001
  2.5010365e-001
  2.8029088e-001
  2.9055435e-001
  2.9074597e-001
  3.0127028e-001
  3.1954657e-001
  3.2962447e-001
  3.3329146e-001
  3.4101928e-001
  3.5035459e-001
  3.4040528e-001
  2.9666824e-001
  2.3434547e-001
  1.8399832e-001
  1.5760048e-001
  1.3960540e-001
  1.1255854e-001
  7.9533371e-002
  5.5968786e-002
  4.8457579e-002
  4.8338761e-002
  4.3132512e-002
  2.8858404e-002
  1.1106602e-002
 -1.3460617e-003
 -1.6670901e-003
  1.0149376e-002
  2.6121427e-002
  3.7006427e-002
  3.9929512e-002
  4.0105540e-002
  4.4302068e-002
  5.2257366e-002
  5.7673378e-002
  5.6500510e-002
  5.0886411e-002
  4.6827440e-002
  4.7791833e-002
  5.1375060e-002
  5.1442843e-002
  4.5112089e-002
  3.6534241e-002
  3.5233657e-002
  4.6112537e-002
  5.9488337e-002
  5.7735097e-002
  3.5458024e-002
  1.1751216e-002
  1.2755949e-002
  4.1894482e-002
  7.1479290e-002
  6.8706816e-002
  3.1021260e-002
 -9.6987116e-003
 -1.8421905e-002
  1.1181296e-002
  5.4115128e-002
  7.8343423e-002
  6.9932505e-002
  4.0301513e-002
  1.3276100e-002
  8.2054154e-003
  3.2338426e-002
  6.8441220e-002
  9.2827126e-002
  9.7894031e-002
  8.6598128e-002
  7.8874541e-002
  8.9623455e-002
  1.0893260e-001
  1.2134137e-001
  1.2480798e-001
  1.2908418e-001
  1.3152354e-001
  1.1143525e-001
  6.2938849e-002
  1.7551237e-002
  9.5336502e-003
  2.8386571e-002
  3.4759131e-002
  1.8696151e-002
  8.5132817e-003
  1.9346531e-002
  3.0288329e-002
  2.6359988e-002
  1.9304370e-002
 -3.7851348e-004
 -6.9772905e-002
 -1.4522784e-001
 -4.5185429e-002
  3.6899132e-001
  9.3317925e-001
  1.2300114e+000
  9.9779815e-001
  4.3112773e-001
 -2.0770512e-002
 -1.1959650e-001
 -4.2745658e-003
  7.7573540e-002
  6.0611671e-002
  3.2657766e-002
  4.0322368e-002
  4.5151650e-002
  2.9125281e-002
  3.0401327e-002
  6.3286216e-002
  8.4151651e-002
  6.4743734e-002
  3.8000695e-002
  4.2000002e-002
  6.5701243e-002
  8.2042907e-002
  9.7161491e-002
  1.2606231e-001
  1.4917195e-001
  1.3958965e-001
  1.2046546e-001
  1.4543270e-001
  2.1784705e-001
  2.8369578e-001
  2.9949236e-001
  2.8427085e-001
  2.9108339e-001
  3.2585941e-001
  3.5467747e-001
  3.5734085e-001
  3.3852094e-001
  3.1558020e-001
  2.9849663e-001
  2.8597154e-001
  2.7195646e-001
  2.4813432e-001
  2.0917011e-001
  1.6010689e-001
  1.1250600e-001
  7.3943512e-002
  4.5340006e-002
  2.6641848e-002
  1.9008180e-002
  1.9195168e-002
  1.7917561e-002
  9.4619046e-003
 -1.5021897e-003
 -6.5461703e-003
 -2.9750197e-003
  4.7779090e-003
  9.5676533e-003
  6.3274134e-003
 -4.0733136e-003
 -1.2005107e-002
 -5.5088741e-003
  1.4000048e-002
  2.9227487e-002
  2.6414939e-002
  1.0654800e-002
 -3.7465613e-003
 -8.7206333e-003
 -4.4021018e-003
  8.0516622e-003
  2.4127929e-002
  3.0183738e-002
  1.5913631e-002
 -8.0253673e-003
 -1.9122539e-002
 -1.2536895e-002
 -7.2915210e-003
 -1.7053685e-002
 -2.9157227e-002
 -2.5140317e-002
 -9.3103184e-003
 -1.4295408e-003
 -7.2458670e-003
 -1.3832634e-002
 -1.3832671e-002
 -1.6352779e-002
 -2.4535577e-002
 -2.2064011e-002
  2.3445390e-003
  3.8956650e-002
  6.0234358e-002
  4.9648972e-002
  2.6409062e-002
  1.5486256e-002
  2.7658207e-002
  5.6775822e-002
  8.4130035e-002
  9.6144829e-002
  8.9001962e-002
  6.6438191e-002
  3.6233162e-002
  7.1872251e-003
 -1.3045461e-002
 -2.1042338e-002
 -2.0945034e-002
 -2.1291894e-002
 -2.6302706e-002
 -3.4131879e-002
 -4.2065264e-002
 -4.6137500e-002
 -4.0587692e-002
 -3.2447310e-002
 -5.3779220e-002
 -1.2591113e-001
 -1.8891363e-001
 -9.9997749e-002
  2.3325000e-001
  6.9752879e-001
  1.0027583e+000
  9.2549036e-001
  5.2468788e-001
  8.7434782e-002
 -1.3739325e-001
 -1.2890964e-001
 -3.2195016e-002
  2.7329922e-002
  3.1757406e-002
  1.8453054e-002
  9.9193412e-003
  8.6507267e-003
  1.7977756e-002
  3.5536559e-002
  4.3852754e-002
  3.1108160e-002
  1.3965017e-002
  1.9772590e-002
  4.9334702e-002
  7.6751522e-002
  8.5673835e-002
  8.8812518e-002
  1.0405787e-001
  1.2766022e-001
  1.4435977e-001
  1.5628786e-001
  1.8602729e-001
  2.4011365e-001
  2.9804654e-001
  3.3259715e-001
  3.3180247e-001
  3.1640069e-001
  3.1064694e-001
  3.2104098e-001
  3.4114248e-001
  3.5490783e-001
  3.5124712e-001
  3.2886263e-001
  2.9018519e-001
  2.3950532e-001
  1.8583911e-001
  1.4147309e-001
  1.1186193e-001
  8.7968588e-002
  5.6717189e-002
  2.1357204e-002
  2.0290600e-003
  8.6068520e-003
  2.3429060e-002
  2.1999325e-002
  4.8105433e-003
 -5.5348764e-003
  1.7537794e-003
  1.1635416e-002
  8.9981627e-003
  1.2866007e-003
  2.0482625e-003
  5.4874882e-003
 -1.5885342e-003
 -1.1216181e-002
 -2.7723477e-003
  2.2700841e-002
  3.7819993e-002
  2.7168661e-002
  1.1306915e-002
  1.6298842e-002
  3.4656863e-002
  3.9692407e-002
  2.7572673e-002
  2.0842883e-002
  3.0708563e-002
  3.8778114e-002
  2.6118431e-002
  2.0783992e-003
 -1.0926124e-002
 -8.5164949e-003
 -4.3400160e-003
 -7.5910788e-003
 -1.4302090e-002
 -1.9415022e-002
 -2.3611193e-002
 -2.6320360e-002
 -2.0971528e-002
 -5.2372491e-003
  8.3517434e-003
  1.5768286e-002
  2.6342593e-002
  4.3087459e-002
  6.3346539e-002
  7.4851968e-002
  7.1404400e-002
  6.2256616e-002
  5.8991373e-002
  6.7409152e-002
  7.7880147e-002
  7.0220511e-002
  3.5762760e-002
 -8.4239859e-003
 -3.6114415e-002
 -4.1472008e-002
 -3.9337465e-002
 -3.6935159e-002
 -2.7333866e-002
 -1.4522095e-002
 -1.8015275e-002
 -3.6985195e-002
 -4.0030092e-002
 -2.4421446e-002
 -5.0846042e-002
 -1.5058421e-001
 -2.0617772e-001
 -1.8605163e-002
  4.4544175e-001
  9.2634775e-001
  1.0786439e+000
  8.0874514e-001
  3.5228297e-001
  1.6091824e-002
 -9.2398890e-002
 -6.8627888e-002
 -2.9730994e-002
 -7.2519213e-003
  1.0277355e-002
  1.7641731e-002
  5.9972307e-003
 -9.7614543e-003
 -1.0043492e-002
  1.5818944e-003
  1.1505058e-002
  2.1126240e-002
  3.8429253e-002
  5.5302278e-002
  5.6581780e-002
  4.7004005e-002
  4.6910512e-002
  6.4478003e-002
  8.8823060e-002
  1.1337873e-001
  1.4603804e-001
  1.8868911e-001
  2.2907331e-001
  2.5215953e-001
  2.6408424e-001
  2.8298472e-001
  3.0224074e-001
  3.0679579e-001
  2.9500741e-001
  2.8083967e-001
  2.8026412e-001
  2.8873503e-001
  2.8960627e-001
  2.7192996e-001
  2.3497447e-001
  1.8582303e-001
  1.3838823e-001
  1.0744904e-001
  9.3572015e-002
  7.8284266e-002
  4.5182259e-002
  3.2908031e-003
 -2.0901999e-002
 -1.5239806e-002
  5.1308422e-003
  1.8939331e-002
  2.0760687e-002
  1.6788679e-002
  1.0589461e-002
  2.2588618e-003
 -3.5136231e-003
 -1.3369741e-003
  4.0483883e-003
  2.4005553e-003
 -6.1931601e-003
 -9.2130904e-003
  1.2922905e-003
  1.7030904e-002
  2.2671593e-002
  1.3967575e-002
  1.1145260e-003
 -5.5088347e-003
 -7.0841187e-003
 -1.0002912e-002
 -1.4546653e-002
 -1.3533957e-002
 -3.1032471e-003
  9.3895202e-003
  1.2816623e-002
  5.3190724e-003
 -4.7142513e-003
 -9.6305697e-003
 -8.4041295e-003
 -3.0984046e-003
  5.6654963e-003
  1.3469507e-002
  1.0383694e-002
 -5.9426714e-003
 -2.0951472e-002
 -1.8074171e-002
 -1.6436840e-003
  7.0685548e-003
 -4.2086937e-004
 -8.0133003e-003
 -1.8497902e-003
  6.1577777e-003
 -3.3991962e-003
 -2.6288005e-002
 -3.8813589e-002
 -3.1295940e-002
 -1.8584367e-002
 -1.4667489e-002
 -1.3998292e-002
  1.1543023e-003
  2.8031745e-002
  4.5851271e-002
  5.0448050e-002
  4.9227432e-002
  5.0603186e-002
  5.4503474e-002
  5.3536625e-002
  4.7135128e-002
  3.7310191e-002
  2.3963311e-002
  9.5878396e-003
  9.0745563e-004
 -1.7090707e-003
 -9.5992296e-003
 -3.0047455e-002
 -4.8607734e-002
 -4.1389041e-002
 -9.4027333e-003
  1.4019322e-002
  3.3054086e-003
 -2.4030688e-002
 -3.5896664e-002
 -4.4020789e-002
 -9.1161056e-002
 -1.5612216e-001
 -1.0767804e-001
  1.7925527e-001
  6.3827195e-001
  9.9258078e-001
  9.8241166e-001
  6.1731912e-001
  1.6915633e-001
 -8.9729714e-002
 -1.1014692e-001
 -3.2103785e-002
  1.0272658e-002
  1.3117496e-003
 -9.8151929e-003
 -1.6854105e-003
  7.8910638e-003
  5.8599400e-003
  6.3297158e-004
  2.9189221e-003
  1.3167934e-002
  2.6664991e-002
  3.7025309e-002
  3.6701509e-002
  2.6539597e-002
  2.2580789e-002
  4.0811070e-002
  7.4524284e-002
  1.0235117e-001
  1.1885635e-001
  1.4178488e-001
  1.8341935e-001
  2.2335502e-001
  2.3818507e-001
  2.3502693e-001
  2.3930593e-001
  2.6915728e-001
  3.0769898e-001
  3.2595853e-001
  3.1841238e-001
  2.9602756e-001
  2.7164869e-001
  2.4992063e-001
  2.2667625e-001
  1.9553444e-001
  1.5520717e-001
  1.1253540e-001
  7.7627537e-002
  5.4384121e-002
  3.8036770e-002
  2.3204891e-002
  1.0675095e-002
  1.4897778e-003
 -1.0551621e-002
 -3.0183674e-002
 -4.7619546e-002
 -4.6504332e-002
 -2.6014392e-002
 -6.2054574e-003
 -4.5798015e-003
 -1.6033683e-002
 -2.4453439e-002
 -2.5095563e-002
 -2.4154544e-002
 -2.1779602e-002
 -1.1593405e-002
  2.0379703e-003
  3.4245050e-003
 -1.0082121e-002
 -2.0331288e-002
 -1.3649292e-002
 -2.1402143e-003
 -5.7655772e-003
 -2.0977633e-002
 -2.5427146e-002
 -1.3337412e-002
 -5.6729481e-003
 -1.8947455e-002
 -4.1912119e-002
 -5.2126997e-002
 -4.5282483e-002
 -3.4702882e-002
 -2.8552484e-002
 -2.4654529e-002
 -2.3894243e-002
 -3.1875365e-002
 -4.6379884e-002
 -5.4240373e-002
 -4.8865194e-002
 -3.8654961e-002
 -3.1485044e-002
 -2.5701448e-002
 -8.9295618e-003
  1.9289944e-002
  3.9318034e-002
  4.5647748e-002
  4.6451726e-002
  4.6275709e-002
  4.0350225e-002
  2.3992568e-002
  9.0171798e-003
  9.0842509e-003
  1.7561129e-002
  1.5326863e-002
 -1.9171800e-003
 -2.1904542e-002
 -3.9495168e-002
 -5.8911950e-002
 -7.0543864e-002
 -5.4975948e-002
 -2.1596522e-002
 -1.1045745e-002
 -3.7874960e-002
 -6.4411733e-002
 -6.8013980e-002
 -9.8533294e-002
 -1.9436333e-001
 -2.4949827e-001
 -6.7602121e-002
  3.8660223e-001
  8.5039295e-001
  9.7370234e-001
  6.7214447e-001
  2.0693078e-001
 -9.7252401e-002
 -1.4967254e-001
 -8.8208131e-002
 -5.7036377e-002
 -7.0172870e-002
 -7.1041784e-002
 -4.0755637e-002
 -9.1086993e-003
  4.5935611e-004
 -4.9006490e-003
 -8.8079204e-003
 -5.0070524e-003
  5.1079792e-003
  1.7931052e-002
  2.7141701e-002
  2.8543162e-002
  2.8120528e-002
  3.6815443e-002
  5.7037456e-002
  7.8376633e-002
  9.2801717e-002
  1.0857733e-001
  1.4064985e-001
  1.9188283e-001
  2.3884967e-001
  2.5842435e-001
  2.5804363e-001
  2.5998749e-001
  2.8220598e-001
  3.1349886e-001
  3.2304168e-001
  3.0144015e-001
  2.6482109e-001
  2.3297562e-001
  2.1076703e-001
  1.8937443e-001
  1.6011628e-001
  1.2322082e-001
  8.5103666e-002
  5.1346264e-002
  2.3475750e-002
  6.8736259e-004
 -1.6174562e-002
 -2.3843955e-002
 -2.1051009e-002
 -1.3200511e-002
 -9.0107466e-003
 -1.0922775e-002
 -1.3782643e-002
 -1.2796509e-002
 -8.9012292e-003
 -6.4373967e-003
 -8.4823274e-003
 -1.4100656e-002
 -1.6944339e-002
 -6.9254115e-003
  1.9146406e-002
  4.5630121e-002
  4.7768716e-002
  2.0539986e-002
 -8.5261002e-003
 -8.1797869e-003
  1.9269884e-002
  4.0145774e-002
  3.1054506e-002
  5.9116344e-003
 -7.1581470e-003
 -3.5320094e-003
 -4.1270403e-004
 -4.1513897e-003
 -7.0359309e-004
  1.7882735e-002
  3.4062852e-002
  2.7126192e-002
  3.4010995e-003
 -1.2044805e-002
 -8.8588141e-003
 -1.3699236e-004
  2.4531902e-003
  3.5816472e-003
  7.9250235e-003
  6.7223304e-003
 -6.7635838e-003
 -1.7048002e-002
 -1.6631663e-003
  3.2136553e-002
  5.9541419e-002
  6.7682041e-002
  6.4074188e-002
  6.8313278e-002
  7.8602785e-002
  7.7845213e-002
  6.2548184e-002
  4.6532546e-002
  4.6608474e-002
  6.0350051e-002
  6.7951261e-002
  5.6233415e-002
  3.4109372e-002
  1.9397554e-002
  1.4201792e-002
  6.5258026e-003
 -4.6403952e-003
 -5.4858142e-003
  5.8838216e-003
  1.0119389e-002
 -1.0538467e-003
 -7.5892552e-003
 -5.9881900e-003
 -4.3451090e-002
 -1.4274642e-001
 -1.9385530e-001
 -9.3044889e-003
  4.4427344e-001
  9.1412017e-001
  1.0556735e+000
  7.7516140e-001
  3.1950212e-001
  9.4678073e-003
 -5.7678314e-002
 -1.2290239e-002
  8.7011404e-003
 -1.9462891e-003
  8.7032650e-003
  4.2574320e-002
  5.8175860e-002
  4.3584706e-002
  2.8689343e-002
  3.4485397e-002
  4.8844928e-002
  5.4079122e-002
  5.1642593e-002
  5.2675908e-002
  6.1329392e-002
  7.6154399e-002
  9.5423683e-002
  1.1497913e-001
  1.2996107e-001
  1.4496734e-001
  1.6959478e-001
  2.0110167e-001
  2.2900141e-001
  2.4716162e-001
  2.6582070e-001
  2.9668166e-001
